Id Lon Lat heading curvature mode SpeedMode EventMode OppositeSideMode LaneNum LaneSeq LaneWidth
0 120.78149753165609 31.59248747007874 -0.80514264106750 -0.22824011743069 10 0 0 0 1 1 4.59999990463257
1 120.78150123301836 31.59248417908204 -0.80645763874054 0.00639835046604 10 5 0 0 1 1 4.59999990463257
2 120.78150502987323 31.59248091799380 -0.80679261684418 0.00523239560425 10 5 0 0 1 1 4.59999990463257
3 120.78150883098758 31.59247768389548 -0.80635762214661 -0.00486914394423 10 5 0 0 1 1 4.59999990463257
4 120.78151264057962 31.59247454660235 -0.80604958534241 -0.00280707376078 10 5 0 0 1 1 4.59999990463257
5 120.78151659058963 31.59247126113329 -0.80636560916901 0.00625581061468 10 5 0 0 1 1 4.59999990463257
6 120.78152034250292 31.59246793261108 -0.81075859069824 0.01109770871699 10 5 0 0 1 1 4.59999990463257
7 120.78152400821604 31.59246452440572 -0.81887060403824 0.02211328595877 10 5 0 0 1 1 4.59999990463257
8 120.78152754593893 31.59246099034019 -0.83340662717819 0.03258502855897 10 5 0 0 1 1 4.59999990463257
9 120.78153089843211 31.59245736143888 -0.85346758365631 0.04444724321365 10 5 0 0 1 1 4.59999990463257
10 120.78153406114055 31.59245369333129 -0.87506663799286 0.04624729231000 10 5 0 0 1 1 4.59999990463257
11 120.78153716019322 31.59244995575650 -0.89696758985519 0.04541904851794 10 5 0 0 1 1 4.59999990463257
12 120.78154019189736 31.59244617073390 -0.91880959272385 0.04324735328555 10 5 0 0 1 1 4.59999990463257
13 120.78154321012185 31.59244216559759 -0.94307661056519 0.04874239116907 10 5 0 0 1 1 4.59999990463257
14 120.78154606516235 31.59243806906606 -0.97005563974380 0.05411428585649 10 5 0 0 1 1 4.59999990463257
15 120.78154868510089 31.59243386559354 -1.00026464462280 0.06216184049845 10 5 0 0 1 1 4.59999990463257
16 120.78155110102985 31.59242960325405 -1.03237760066986 0.06065945327282 10 5 0 0 1 1 4.59999990463257
17 120.78155335456434 31.59242535396456 -1.06429362297058 0.06159140169621 10 5 0 0 1 1 4.59999990463257
18 120.78155538095410 31.59242112131480 -1.09694063663483 0.06698129326105 10 5 0 0 1 1 4.59999990463257
19 120.78155728789181 31.59241654030980 -1.13393461704254 0.07359416037798 10 5 0 0 1 1 4.59999990463257
20 120.78155894486444 31.59241199159652 -1.17078065872192 0.07681152224541 10 5 0 0 1 1 4.59999990463257
21 120.78156027042736 31.59240753601249 -1.20992362499237 0.07962445169687 10 5 0 0 1 1 4.59999990463257
22 120.78156139744597 31.59240284596873 -1.25275456905365 0.08343103528023 10 5 0 0 1 1 4.59999990463257
23 120.78156227030077 31.59239833698671 -1.29313766956329 0.08298883587122 10 5 0 0 1 1 4.59999990463257
24 120.78156291434919 31.59239355937643 -1.33787560462952 0.08742544054985 10 5 0 0 1 1 4.59999990463257
25 120.78156326079834 31.59238893819009 -1.38256156444550 0.08901274949312 10 5 0 0 1 1 4.59999990463257
26 120.78156334653082 31.59238409719713 -1.42991459369659 0.09266611188650 10 5 0 0 1 1 4.59999990463257
27 120.78156315177932 31.59237944073213 -1.47653067111969 0.09612680226564 10 5 0 0 1 1 4.59999990463257
28 120.78156265740073 31.59237455689642 -1.52674758434296 0.09078688174486 10 5 0 0 1 1 4.59999990463257
29 120.78156188501652 31.59236988462684 -1.57625555992126 0.09367369860411 10 5 0 0 1 1 4.59999990463257
30 120.78156088790188 31.59236541266072 -1.62354695796967 0.09848321974277 10 5 0 0 1 1 4.59999990463257
31 120.78155955034451 31.59236076190339 -1.67411088943481 0.09650807082653 10 5 0 0 1 1 4.59999990463257
32 120.78155805193765 31.59235635406955 -1.72191691398621 0.09952569007874 10 5 0 0 1 1 4.59999990463257
33 120.78155618118465 31.59235188046273 -1.77257788181305 0.09696231782436 10 5 0 0 1 1 4.59999990463257
34 120.78155397830169 31.59234735068044 -1.82446086406708 0.10205712169409 10 5 0 0 1 1 4.59999990463257
35 120.78155162562092 31.59234316775912 -1.87485194206238 0.09893900156021 10 5 0 0 1 1 4.59999990463257
36 120.78154893959163 31.59233896483489 -1.92694497108459 0.09867832064629 10 5 0 0 1 1 4.59999990463257
37 120.78154623670453 31.59233509436308 -1.97425091266632 0.09897653758526 10 5 0 0 1 1 4.59999990463257
38 120.78154322896319 31.59233121601763 -2.02295303344727 0.09822370857000 10 5 0 0 1 1 4.59999990463257
39 120.78153987349511 31.59232742215324 -2.07449793815613 0.10824506729841 10 5 0 0 1 1 4.59999990463257
40 120.78153626184744 31.59232390002180 -2.12882399559021 0.11148748546839 10 5 0 0 1 1 4.59999990463257
41 120.78153227864183 31.59232052786695 -2.18735885620117 0.11263542622328 10 5 0 0 1 1 4.59999990463257
42 120.78152833015065 31.59231754075459 -2.24336791038513 0.11406558752060 10 5 0 0 1 1 4.59999990463257
43 120.78152417287164 31.59231475684244 -2.29902601242065 0.11224530637264 10 5 0 0 1 1 4.59999990463257
44 120.78151984918659 31.59231213572106 -2.35369396209717 0.10975912213326 10 5 0 0 1 1 4.59999990463257
45 120.78151521741219 31.59230952714680 -2.40631198883057 0.09985667467117 10 5 0 0 1 1 4.59999990463257
46 120.78151062393867 31.59230697504918 -2.45061683654785 0.08272041380405 10 5 0 0 1 1 4.59999990463257
47 120.78150620700472 31.59230451585659 -2.48527693748474 0.07510478049517 10 5 0 0 1 1 4.59999990463257
48 120.78150413662412 31.59230338812697 -2.49694800376892 0.35162693262100 10 5 3 0 1 1 4.59999990463257
49 120.78149952939845 31.59230116095592 -2.52144789695740 0.03635976463556 10 5 0 0 1 1 3.00000000000000
50 120.78149490565825 31.59229879348064 -2.54286503791809 0.03184511139989 10 5 0 0 1 1 3.00000000000000
51 120.78149038597734 31.59229640454206 -2.55699181556702 0.02435392886400 10 5 0 0 1 1 3.00000000000000
52 120.78148567706046 31.59229389031503 -2.56764292716980 0.01443457044661 10 5 0 0 1 1 3.00000000000000
53 120.78148115362529 31.59229145568347 -2.57579803466797 0.01422372180969 10 5 0 0 1 1 3.00000000000000
54 120.78147646847077 31.59228888726669 -2.58109784126282 0.00378578156233 10 5 0 0 1 1 3.00000000000000
55 120.78147183990305 31.59228627801873 -2.58508086204529 0.00802547018975 10 5 0 0 1 1 3.00000000000000
56 120.78146737527918 31.59228371228291 -2.58920288085938 0.00486850040033 10 5 0 0 1 1 3.00000000000000
57 120.78146293183281 31.59228126023089 -2.59371185302734 0.01220917794853 10 5 0 0 1 1 3.00000000000000
58 120.78145837546340 31.59227883567341 -2.59804296493530 0.00826252065599 10 5 0 0 1 1 3.00000000000000
59 120.78145375959413 31.59227638596604 -2.60267901420593 0.00947225745767 10 5 0 0 1 1 3.00000000000000
60 120.78144908590514 31.59227395558852 -2.60601592063904 0.00483668688685 10 5 0 0 1 1 3.00000000000000
61 120.78144442995689 31.59227154675492 -2.60738182067871 0.00009399381088 10 5 0 0 1 1 3.00000000000000
62 120.78143984169070 31.59226915517119 -2.60841083526611 0.00094169739168 10 5 0 0 1 1 3.00000000000000
63 120.78143531871993 31.59226682913920 -2.60966491699219 0.00363351171836 10 5 0 0 1 1 3.00000000000000
64 120.78143038266012 31.59226432560111 -2.61138081550598 0.00129263056442 10 5 0 0 1 1 3.00000000000000
65 120.78142558432357 31.59226187506295 -2.61232995986938 0.00180900469422 10 5 0 0 1 1 3.00000000000000
66 120.78142090754937 31.59225952736002 -2.61371994018555 0.00178849278018 10 5 0 0 1 1 3.00000000000000
67 120.78141633139927 31.59225729372723 -2.61539793014526 0.00320998299867 10 5 0 0 1 1 3.00000000000000
68 120.78141144161637 31.59225482522708 -2.61652898788452 0.00308140483685 10 5 0 0 1 1 3.00000000000000
69 120.78140640793302 31.59225233053782 -2.61803388595581 0.00320635573007 10 5 0 0 1 1 3.00000000000000
70 120.78140151190208 31.59224996212474 -2.61959981918335 0.00078470958397 10 5 0 0 1 1 3.00000000000000
71 120.78139679258210 31.59224771608325 -2.62117791175842 0.00100453093182 10 5 0 0 1 1 3.00000000000000
72 120.78139198489956 31.59224542101801 -2.62201285362244 0.00040190445725 10 5 0 0 1 1 3.00000000000000
73 120.78138676436723 31.59224295400164 -2.62339186668396 0.00162868795451 10 5 0 0 1 1 3.00000000000000
74 120.78138183566752 31.59224055580546 -2.62413501739502 0.00009868046618 10 5 0 0 1 1 3.00000000000000
75 120.78137692660360 31.59223813277920 -2.62472081184387 0.00126530881971 10 5 0 0 1 1 3.00000000000000
76 120.78137234273125 31.59223586837704 -2.62544202804565 -0.00067120627500 10 5 0 0 1 1 3.00000000000000
77 120.78136748786004 31.59223344856409 -2.62607789039612 0.00008569078636 10 5 0 0 1 1 3.00000000000000
78 120.78136266232768 31.59223102996977 -2.62645292282104 0.00294456072152 10 5 0 0 1 1 3.00000000000000
79 120.78135757993795 31.59222848016838 -2.62734389305115 0.00147327827290 10 5 0 0 1 1 3.00000000000000
80 120.78135281916887 31.59222611593296 -2.62790203094482 -0.00083752191858 10 5 0 0 1 1 3.00000000000000
81 120.78134775959440 31.59222365577870 -2.62859892845154 0.00056981219677 10 5 0 0 1 1 3.00000000000000
82 120.78134300998083 31.59222137649980 -2.62980699539185 0.00320338364691 10 5 0 0 1 1 3.00000000000000
83 120.78133830417359 31.59221909912091 -2.63047599792480 0.00098923640326 10 5 0 0 1 1 3.00000000000000
84 120.78133331898322 31.59221668593149 -2.63113188743591 0.00206446484663 10 5 0 0 1 1 3.00000000000000
85 120.78132867179777 31.59221439590238 -2.63210296630859 0.00275102816522 10 5 0 0 1 1 3.00000000000000
86 120.78132376880133 31.59221197815136 -2.63280200958252 0.00159307569265 10 5 0 0 1 1 3.00000000000000
87 120.78131918989044 31.59220972553866 -2.63339400291443 0.00050257542171 10 5 0 0 1 1 3.00000000000000
88 120.78131407830662 31.59220719967221 -2.63433289527893 0.00100623082835 10 5 0 0 1 1 3.00000000000000
89 120.78130928720950 31.59220484150389 -2.63507294654846 0.00157344876789 10 5 0 0 1 1 3.00000000000000
90 120.78130426382964 31.59220236122650 -2.63563394546509 0.00193373730872 10 5 0 0 1 1 3.00000000000000
91 120.78129957490384 31.59220000489990 -2.63464999198914 -0.00269196578301 10 5 0 0 1 1 3.00000000000000
92 120.78129464879538 31.59219747218748 -2.63232588768005 -0.00427844794467 10 5 0 0 1 1 3.00000000000000
93 120.78128978167479 31.59219496283942 -2.62981486320496 -0.00436694640666 10 5 0 0 1 1 3.00000000000000
94 120.78128497682533 31.59219245808503 -2.62769889831543 -0.00345667242073 10 5 0 0 1 1 3.00000000000000
95 120.78128046597860 31.59219010266464 -2.62614703178406 -0.00258250301704 10 5 0 0 1 1 3.00000000000000
96 120.78127574491472 31.59218762086056 -2.62542891502380 -0.00114720629063 10 5 0 0 1 1 3.00000000000000
97 120.78127079442450 31.59218504085657 -2.62486100196838 0.00069506105501 10 5 0 0 1 1 3.00000000000000
98 120.78126611437673 31.59218267377983 -2.62552380561829 0.00285043148324 10 5 0 0 1 1 3.00000000000000
99 120.78126120960329 31.59218022353326 -2.62614083290100 0.00037698849337 10 5 0 0 1 1 3.00000000000000
100 120.78125659639467 31.59217792908870 -2.62666392326355 0.00262709939852 10 5 0 0 1 1 3.00000000000000
101 120.78125176411469 31.59217557254732 -2.62750601768494 0.00122419814579 10 5 0 0 1 1 3.00000000000000
102 120.78124674150334 31.59217309634855 -2.62809896469116 0.00064030371141 10 5 0 0 1 1 3.00000000000000
103 120.78124210692845 31.59217081953141 -2.62831997871399 0.00365821481682 10 5 0 0 1 1 3.00000000000000
104 120.78123720333122 31.59216845770851 -2.62854099273682 -0.00117926858366 10 5 0 0 1 1 3.00000000000000
105 120.78123262989649 31.59216621845772 -2.62858390808105 0.00186552689411 10 5 0 0 1 1 3.00000000000000
106 120.78122782427840 31.59216387058437 -2.62906002998352 0.00691006891429 10 5 0 0 1 1 3.00000000000000
107 120.78122316881743 31.59216150140880 -2.62929701805115 -0.00411132723093 10 5 0 0 1 1 3.00000000000000
108 120.78121841344492 31.59215901791336 -2.62822484970093 -0.00327566498891 10 5 0 0 1 1 3.00000000000000
109 120.78121369304041 31.59215647308237 -2.62712001800537 -0.00562354130670 10 5 0 0 1 1 3.00000000000000
110 120.78120928989370 31.59215398224548 -2.62607789039612 -0.00558208255097 10 5 0 0 1 1 3.00000000000000
111 120.78120480277016 31.59215154515645 -2.62538099288940 -0.00131970213261 10 5 0 0 1 1 3.00000000000000
112 120.78120025506988 31.59214916603094 -2.62457585334778 -0.00577413570136 10 5 0 0 1 1 3.00000000000000
113 120.78119560837689 31.59214683122795 -2.62365984916687 -0.00081698293798 10 5 0 0 1 1 3.00000000000000
114 120.78119105671578 31.59214452010263 -2.62300300598145 -0.00796153116971 10 5 0 0 1 1 3.00000000000000
115 120.78118645629452 31.59214231141191 -2.62228202819824 -0.00663800723851 10 5 0 0 1 1 3.00000000000000
116 120.78118182883742 31.59214000527766 -2.62331986427307 -0.00423482432961 10 5 0 0 1 1 4.50000000000000
117 120.78117725593498 31.59213761211386 -2.62100481987000 -0.01520917192101 10 5 0 0 1 1 4.50000000000000
118 120.78117279787510 31.59213519595507 -2.61812496185303 -0.00015533211990 10 5 0 0 1 1 4.50000000000000
119 120.78116814609835 31.59213263709841 -2.61543083190918 -0.00283889519051 10 5 0 0 1 1 4.50000000000000
120 120.78116360263060 31.59213020117931 -2.61374282836914 -0.00648125819862 10 5 0 0 1 1 4.50000000000000
121 120.78115898931451 31.59212772729419 -2.61232280731201 -0.00177559652366 10 5 0 0 1 1 4.50000000000000
122 120.78115438137861 31.59212531273250 -2.61127400398254 -0.00450068572536 10 5 0 0 1 1 4.50000000000000
123 120.78114976329982 31.59212287147563 -2.61021590232849 -0.00520535092801 10 5 0 0 1 1 4.50000000000000
124 120.78114495345525 31.59212039316097 -2.60900092124939 -0.00546520994976 10 5 0 0 1 1 4.50000000000000
125 120.78114008169214 31.59211781549677 -2.60716986656189 -0.00476365815848 10 5 0 0 1 1 4.50000000000000
126 120.78113521404283 31.59211522873030 -2.60488200187683 -0.00669467402622 10 5 0 0 1 1 4.50000000000000
127 120.78113046115197 31.59211266794554 -2.60248398780823 -0.00496321963146 10 5 0 0 1 1 4.50000000000000
128 120.78112592394307 31.59211014855511 -2.59974002838135 -0.00596340419725 10 5 0 0 1 1 4.50000000000000
129 120.78112123094168 31.59210752824712 -2.59703397750854 -0.00627425452694 10 5 0 0 1 1 4.50000000000000
130 120.78111674655176 31.59210508120857 -2.59527397155762 -0.00384336500429 10 5 0 0 1 1 4.50000000000000
131 120.78111211502474 31.59210255119799 -2.59469485282898 0.00016693658836 10 5 0 0 1 1 4.50000000000000
132 120.78110731531478 31.59210002795657 -2.59519982337952 0.00045242646593 10 5 0 0 1 1 4.50000000000000
133 120.78110282122762 31.59209760368953 -2.59614300727844 0.00222756294534 10 5 0 0 1 1 4.50000000000000
134 120.78109820169848 31.59209507413096 -2.59705185890198 0.00341828935780 10 5 0 0 1 1 4.50000000000000
135 120.78109345246831 31.59209248819541 -2.59859800338745 0.00360499136150 10 5 0 0 1 1 4.50000000000000
136 120.78108877471792 31.59208992346711 -2.59983396530151 0.00159441225696 10 5 0 0 1 1 4.50000000000000
137 120.78108434774705 31.59208747362264 -2.60144186019897 0.00339141278528 10 5 0 0 1 1 4.50000000000000
138 120.78107978229407 31.59208501695831 -2.60365390777588 0.00911567360163 10 5 0 0 1 1 4.50000000000000
139 120.78107511803624 31.59208249589317 -2.60601687431335 0.00251358351670 10 5 0 0 1 1 4.50000000000000
140 120.78107033833469 31.59207991977712 -2.60857892036438 0.00498475553468 10 5 0 0 1 1 4.50000000000000
141 120.78106581785224 31.59207752331436 -2.61112880706787 0.00525146909058 10 5 0 0 1 1 4.50000000000000
142 120.78106123699045 31.59207507711819 -2.61333298683167 0.00505325570703 10 5 0 0 1 1 4.50000000000000
143 120.78105656176359 31.59207259401767 -2.61533093452454 0.00628829654306 10 5 0 0 1 1 4.50000000000000
144 120.78105180859093 31.59207010841483 -2.61691093444824 0.00525685260072 10 5 0 0 1 1 4.50000000000000
145 120.78104711161930 31.59206765019776 -2.61773800849915 0.00047333398834 10 5 0 0 1 1 4.50000000000000
146 120.78104256954872 31.59206529125930 -2.61740899085999 -0.00123945972882 10 5 0 0 1 1 4.50000000000000
147 120.78103783225527 31.59206278755423 -2.61651802062988 -0.00073798402445 10 5 0 0 1 1 4.50000000000000
148 120.78103304197762 31.59206028338089 -2.61553788185120 -0.00370537349954 10 5 0 0 1 1 4.50000000000000
149 120.78102836847262 31.59205783096197 -2.61430096626282 -0.00161330006085 10 5 0 0 1 1 4.50000000000000
150 120.78102385412537 31.59205540131573 -2.61296796798706 -0.00035967814620 10 5 0 0 1 1 4.50000000000000
151 120.78101937577698 31.59205296370926 -2.61166882514954 -0.00493544247001 10 5 0 0 1 1 4.50000000000000
152 120.78101495546254 31.59205050901373 -2.61004590988159 -0.00143111543730 10 5 0 0 1 1 4.50000000000000
153 120.78101046507348 31.59204799498189 -2.60834193229675 -0.00285099283792 10 5 0 0 1 1 4.50000000000000
154 120.78100584548535 31.59204547204724 -2.60686397552490 -0.00464321393520 10 5 0 0 1 1 4.50000000000000
155 120.78100127966029 31.59204296923137 -2.60550880432129 -0.00331122311763 10 5 0 0 1 1 4.50000000000000
156 120.78099651184149 31.59204038370603 -2.60419797897339 0.00047107684077 10 5 0 0 1 1 4.50000000000000
157 120.78099190635095 31.59203793492348 -2.60371685028076 0.00119643332437 10 5 0 0 1 1 4.50000000000000
158 120.78098732771302 31.59203550932887 -2.60316300392151 -0.00348642445169 10 5 0 0 1 1 4.50000000000000
159 120.78098273473678 31.59203308754446 -2.60248398780823 0.00401989743114 10 5 0 0 1 1 4.50000000000000
160 120.78097810818042 31.59203064503033 -2.60265684127808 -0.00171587744262 10 5 0 0 1 1 4.50000000000000
161 120.78097353851781 31.59202825764888 -2.60338401794434 -0.00495147705078 10 5 0 0 1 1 4.50000000000000
162 120.78096897564541 31.59202589397627 -2.60384702682495 -0.00603462802246 10 5 0 1 1 1 4.50000000000000
163 120.78096428012637 31.59202369239267 -2.60475587844849 -0.00460782693699 10 5 0 1 1 1 4.50000000000000
164 120.78095957639565 31.59202125586005 -2.60511589050293 0.00297345826402 10 5 0 1 1 1 4.50000000000000
165 120.78095475543265 31.59201873904621 -2.60530781745911 -0.00393705256283 10 5 0 1 1 1 4.50000000000000
166 120.78095011343038 31.59201627573008 -2.60547399520874 0.00307634449564 10 5 0 1 1 1 4.50000000000000
167 120.78094555558772 31.59201390659502 -2.60633492469788 0.00076216959860 10 5 0 1 1 1 4.50000000000000
168 120.78094100261282 31.59201156254059 -2.60787200927734 0.00307703576982 10 5 0 1 1 1 4.50000000000000
169 120.78093626597753 31.59200903845131 -2.60892701148987 0.00259655830450 10 5 0 1 1 1 4.50000000000000
170 120.78093113272553 31.59200633883885 -2.61052393913269 0.00500528467819 10 5 0 1 1 1 4.50000000000000
171 120.78092633701077 31.59200380164073 -2.61194300651550 -0.00040540302871 10 5 0 1 1 1 4.50000000000000
172 120.78092171941078 31.59200140112272 -2.61318087577820 0.00159746501595 10 5 0 1 1 1 4.50000000000000
173 120.78091710427319 31.59199901839437 -2.61473894119263 0.00261168088764 10 5 0 1 1 1 4.50000000000000
174 120.78091253853398 31.59199668042814 -2.61613297462463 0.00343583989888 10 5 0 1 1 1 4.50000000000000
175 120.78090778588658 31.59199422587528 -2.61719083786011 0.00106941326521 10 5 0 1 1 1 4.50000000000000
176 120.78090316410719 31.59199182091353 -2.61837291717529 0.00312759680673 10 5 0 1 1 1 4.50000000000000
177 120.78089805485534 31.59198914802782 -2.61941194534302 0.00125693227164 10 5 0 1 1 1 4.50000000000000
178 120.78089344770343 31.59198674415400 -2.62001681327820 0.00044953424367 10 5 0 1 1 1 4.50000000000000
179 120.78088841135217 31.59198408781860 -2.62047886848450 0.00200937362388 10 5 0 1 1 1 4.50000000000000
180 120.78088359018393 31.59198156729488 -2.62117981910706 0.00082916993415 10 5 0 1 1 1 4.50000000000000
181 120.78087866232082 31.59197899277729 -2.62120389938354 0.00032670612563 10 5 0 1 1 1 4.50000000000000
182 120.78087403162290 31.59197654530056 -2.62104392051697 0.00106895039789 10 5 0 1 1 1 4.50000000000000
183 120.78086893377026 31.59197392520368 -2.62136602401733 0.00046686516725 10 5 0 1 1 1 4.50000000000000
184 120.78086376029296 31.59197126536301 -2.62140488624573 -0.00101406010799 10 5 0 1 1 1 4.50000000000000
185 120.78085888473258 31.59196876074417 -2.62153887748718 0.00119852356147 10 5 0 1 1 1 4.50000000000000
186 120.78085433700083 31.59196642567014 -2.62189793586731 0.00056026241509 10 5 0 1 1 1 4.50000000000000
187 120.78084973552907 31.59196407269433 -2.62185001373291 0.00035992456833 10 5 0 1 1 1 4.50000000000000
