Id Lon Lat heading curvature mode SpeedMode EventMode OppositeSideMode LaneNum LaneSeq LaneWidth
0 120.77183207978112 31.59335628666463 -1.04124164581299 0.04910937696695 10 2 0 0 2 1 5.00000000000000
1 120.77183484238195 31.59335228100663 -1.04635262489319 0.02117341011763 10 2 0 0 2 1 5.00000000000000
2 120.77183744198523 31.59334814340542 -1.05523264408112 0.02208990231156 10 2 0 0 2 1 5.00000000000000
3 120.77183997019179 31.59334408727446 -1.06438958644867 0.01596889644861 10 2 0 0 2 1 5.00000000000000
4 120.77184250296384 31.59334001472233 -1.07404756546021 0.00959257408977 10 2 0 0 2 1 5.00000000000000
5 120.77184513105219 31.59333555107926 -1.08300459384918 0.01484311092645 10 2 0 0 2 1 5.00000000000000
6 120.77184758523225 31.59333134069362 -1.08953559398651 0.00707982899621 10 2 0 0 2 1 5.00000000000000
7 120.77184995063648 31.59332729047066 -1.09372663497925 0.00574881583452 10 2 0 0 2 1 5.00000000000000
8 120.77185237259104 31.59332311253484 -1.09674358367920 0.00498906057328 10 2 0 0 2 1 5.00000000000000
9 120.77185486070682 31.59331892335449 -1.09881663322449 0.00007475452730 10 2 0 0 2 1 5.00000000000000
10 120.77185733203009 31.59331477006178 -1.09993159770966 0.00125906581525 10 2 0 0 2 1 5.00000000000000
11 120.77185975738000 31.59331066951207 -1.10167658329010 0.00280672917143 10 2 0 0 2 1 5.00000000000000
12 120.77186240230050 31.59330621772835 -1.10220766067505 0.00009360237891 10 2 0 0 2 1 5.00000000000000
13 120.77186489898605 31.59330183424970 -1.10322558879852 -0.00037581578363 10 2 0 0 2 1 5.00000000000000
14 120.77186736380834 31.59329765158169 -1.10410165786743 -0.00101863720920 10 2 0 0 2 1 5.00000000000000
15 120.77186988298661 31.59329340377049 -1.10375165939331 0.00076514011016 10 2 0 0 2 1 5.00000000000000
16 120.77187226729203 31.59328928814238 -1.10395359992981 -0.00337511929683 10 2 0 0 2 1 5.00000000000000
17 120.77187487315301 31.59328488788795 -1.10365557670593 0.00004481100768 10 2 0 0 2 1 5.00000000000000
18 120.77187738737273 31.59328067397772 -1.10358059406281 0.00096481654327 10 2 0 0 2 1 5.00000000000000
19 120.77188005048205 31.59327614285722 -1.10420358181000 0.00102806393988 10 2 0 0 2 1 5.00000000000000
20 120.77188247280901 31.59327205031772 -1.10497665405273 0.00032873789314 10 2 0 0 2 1 5.00000000000000
21 120.77188508383125 31.59326761484940 -1.10591757297516 0.00046131919953 10 2 0 0 2 1 5.00000000000000
22 120.77188756903507 31.59326338974850 -1.10670757293701 0.00078907673014 10 2 0 0 2 1 5.00000000000000
23 120.77189026911493 31.59325881094483 -1.10757458209991 0.00229885475710 10 2 0 0 2 1 5.00000000000000
24 120.77189278266515 31.59325437601913 -1.10877358913422 0.00038368228707 10 2 0 0 2 1 5.00000000000000
25 120.77189536360571 31.59324988438676 -1.10976266860962 -0.00162692670710 10 2 0 0 2 1 5.00000000000000
26 120.77189785125441 31.59324565005190 -1.11068665981293 0.00339360372163 10 2 0 0 2 1 5.00000000000000
27 120.77190054217108 31.59324109566560 -1.11050665378571 -0.00204302673228 10 2 0 0 2 1 5.00000000000000
28 120.77190323828877 31.59323648676224 -1.11019563674927 -0.00029883708339 10 2 0 0 2 1 5.00000000000000
29 120.77190577939308 31.59323203740306 -1.11142563819885 0.00224726111628 10 2 0 0 2 1 5.00000000000000
30 120.77190821410663 31.59322782317467 -1.11242055892944 -0.00091303722002 10 2 0 0 2 1 5.00000000000000
31 120.77191083619179 31.59322324119187 -1.11327159404755 0.00216726399958 10 2 0 0 2 1 5.00000000000000
32 120.77191331950394 31.59321890841330 -1.11418867111206 0.00158983084839 10 2 0 0 2 1 5.00000000000000
33 120.77191580464019 31.59321451834826 -1.11541855335236 0.00328002474271 10 2 0 0 2 1 5.00000000000000
34 120.77191853184108 31.59320977642595 -1.11570060253143 0.00204656645656 10 2 0 0 2 1 5.00000000000000
35 120.77192112542936 31.59320529395228 -1.11649262905121 -0.00010921122885 10 2 0 0 2 1 5.00000000000000
36 120.77192376449571 31.59320077162196 -1.11613357067108 -0.00320303137414 10 2 0 0 2 1 5.00000000000000
37 120.77192642985713 31.59319619337328 -1.11553764343262 -0.00011544448353 10 2 0 0 2 1 5.00000000000000
38 120.77192896683442 31.59319189547928 -1.11514961719513 -0.00231775431894 10 2 0 0 2 1 5.00000000000000
39 120.77193171283176 31.59318718841318 -1.11523461341858 -0.00200954428874 10 2 0 0 2 1 5.00000000000000
40 120.77193410363445 31.59318312936812 -1.11447656154633 -0.00207112659700 10 2 0 0 2 1 5.00000000000000
41 120.77193672345655 31.59317869032528 -1.11387860774994 0.00028975613532 10 2 0 0 2 1 5.00000000000000
42 120.77193915515637 31.59317454096356 -1.11419665813446 -0.00064978690352 10 2 0 0 2 1 5.00000000000000
43 120.77194162236547 31.59317035798924 -1.11354863643646 -0.00005273092393 10 2 0 0 2 1 5.00000000000000
44 120.77194435594416 31.59316579801708 -1.11304366588593 -0.00105939095374 10 2 0 0 2 1 5.00000000000000
45 120.77194692964504 31.59316158083841 -1.11283159255981 -0.00135623873211 10 2 0 0 2 1 5.00000000000000
46 120.77194951277485 31.59315731576033 -1.11221766471863 -0.00255679106340 10 2 0 0 2 1 5.00000000000000
47 120.77195213680291 31.59315302612629 -1.11151361465454 0.00132054847199 10 2 0 0 2 1 5.00000000000000
48 120.77195501708364 31.59314835893482 -1.11142563819885 -0.00133451179136 10 2 0 0 2 1 5.00000000000000
49 120.77195770739969 31.59314401041626 -1.11031758785248 -0.00335995783098 10 2 0 0 2 1 5.00000000000000
50 120.77196041909285 31.59313963119693 -1.10958266258240 -0.00193159887567 10 2 0 0 2 1 5.00000000000000
51 120.77196337199126 31.59313484984404 -1.10894465446472 -0.00236722547561 10 2 0 0 2 1 5.00000000000000
52 120.77196611387230 31.59313041600873 -1.10837757587433 -0.00173112389166 10 2 0 0 2 1 5.00000000000000
53 120.77196887176675 31.59312593894060 -1.10793566703796 -0.00085532857338 10 2 0 0 2 1 5.00000000000000
54 120.77197162908358 31.59312143974349 -1.10760855674744 -0.00036456403905 10 2 0 0 2 1 5.00000000000000
55 120.77197415175803 31.59311726886054 -1.10714662075043 -0.00123428250663 10 2 0 0 2 1 5.00000000000000
56 120.77197692660729 31.59311270459759 -1.10688555240631 -0.00143897160888 10 2 0 0 2 1 5.00000000000000
57 120.77197969758764 31.59310809406002 -1.10587155818939 -0.00231273192912 10 2 0 0 2 1 5.00000000000000
58 120.77198247907447 31.59310345820556 -1.10477459430695 -0.00299427402206 10 2 0 0 2 1 5.00000000000000
59 120.77198504946456 31.59309920949510 -1.10392463207245 -0.00188617419917 10 2 0 0 2 1 5.00000000000000
60 120.77198784842555 31.59309454053757 -1.10289859771729 -0.00227928883396 10 2 0 0 2 1 5.00000000000000
61 120.77199071474431 31.59308991135486 -1.10184264183044 -0.00209637777880 10 2 0 0 2 1 5.00000000000000
62 120.77199381864340 31.59308489266641 -1.10132455825806 -0.00069629808422 10 2 0 0 2 1 5.00000000000000
63 120.77199668781951 31.59308024035455 -1.10075366497040 -0.00136857503094 10 2 0 0 2 1 5.00000000000000
64 120.77199956214200 31.59307557872821 -1.10004258155823 -0.00094706105301 10 2 0 0 2 1 5.00000000000000
65 120.77200243523603 31.59307090114182 -1.10005462169647 0.00063686136855 10 2 0 0 2 1 5.00000000000000
66 120.77200507935827 31.59306660651384 -1.09919464588165 -0.00169140228536 10 2 0 0 2 1 5.00000000000000
67 120.77200796297831 31.59306190689778 -1.09880661964417 0.00010283564916 10 2 0 0 2 1 5.00000000000000
68 120.77201083245825 31.59305717933812 -1.09917962551117 -0.00016865986981 10 2 0 0 2 1 5.00000000000000
69 120.77201371103563 31.59305245565519 -1.09917366504669 -0.00139958632644 10 2 0 0 2 1 5.00000000000000
70 120.77201634146051 31.59304811807341 -1.09986460208893 0.00198201788589 10 2 0 0 2 1 5.00000000000000
71 120.77201919226557 31.59304339375267 -1.10131967067719 0.00051900948165 10 2 0 0 2 1 5.00000000000000
72 120.77202201434426 31.59303866963696 -1.10216355323792 0.00032343951170 10 2 0 0 2 1 5.00000000000000
73 120.77202458319388 31.59303435145434 -1.10311257839203 0.00238338019699 10 2 0 0 2 1 5.00000000000000
74 120.77202737573279 31.59302968007488 -1.10361659526825 0.00037134511513 10 2 0 0 2 1 5.00000000000000
75 120.77203016790502 31.59302501078944 -1.10437262058258 0.00117517728359 10 2 0 0 2 1 5.00000000000000
76 120.77203293665900 31.59302035465770 -1.10505163669586 0.00087574205827 10 2 0 0 2 1 5.00000000000000
77 120.77203546513573 31.59301611575544 -1.10482358932495 0.00027612777194 10 2 0 0 2 1 5.00000000000000
78 120.77203819969888 31.59301150512964 -1.10523462295532 0.00027517971466 10 2 0 0 2 1 5.00000000000000
79 120.77204093045664 31.59300692062086 -1.10560262203217 -0.00148565857671 10 2 0 0 2 1 5.00000000000000
80 120.77204386088428 31.59300195033742 -1.10604858398438 0.00066369405249 10 2 0 0 2 1 5.00000000000000
81 120.77204655563828 31.59299739056420 -1.10655057430267 0.00118616840336 10 2 0 0 2 1 5.00000000000000
82 120.77204922421146 31.59299288289650 -1.10658359527588 -0.00099177542143 10 2 0 0 2 1 5.00000000000000
83 120.77205185823669 31.59298843384409 -1.10638356208801 -0.00027579141897 10 2 0 0 2 1 5.00000000000000
84 120.77205426924135 31.59298440550805 -1.10649263858795 0.00114206678700 10 2 0 0 2 1 5.00000000000000
85 120.77205688960603 31.59298000175448 -1.10623359680176 -0.00122924277093 10 2 0 0 2 1 5.00000000000000
86 120.77205949478569 31.59297561659234 -1.10606360435486 -0.00089708087035 10 2 0 0 2 1 5.00000000000000
87 120.77206209792854 31.59297126728217 -1.10577964782715 -0.00022740395798 10 2 0 0 2 1 5.00000000000000
88 120.77206492920263 31.59296658740737 -1.10549366474152 0.00015068196808 10 2 0 0 2 1 5.00000000000000
89 120.77206755787019 31.59296230308214 -1.10473859310150 -0.00398281589150 10 2 0 0 2 1 5.00000000000000
90 120.77207017746481 31.59295803981732 -1.10359966754913 0.00016401501489 10 2 0 0 2 1 5.00000000000000
91 120.77207299687657 31.59295344125425 -1.10308957099915 -0.00156181503553 10 2 0 0 2 1 5.00000000000000
92 120.77207559034132 31.59294920358996 -1.10205864906311 -0.00384963513352 10 2 0 0 2 1 5.00000000000000
93 120.77207816473350 31.59294496327059 -1.10019266605377 -0.00599799724296 10 2 0 0 2 1 5.00000000000000
94 120.77208096508815 31.59294040032436 -1.09751856327057 -0.00628098193556 10 2 0 0 2 1 5.00000000000000
95 120.77208354069199 31.59293621003950 -1.09458255767822 -0.00818636361510 10 2 0 0 2 1 5.00000000000000
96 120.77208615014325 31.59293206311012 -1.09024965763092 -0.00858410168439 10 2 0 0 2 1 5.00000000000000
97 120.77208876275604 31.59292791368742 -1.08553266525269 -0.01038116868585 10 2 0 0 2 1 5.00000000000000
98 120.77209164432840 31.59292347016839 -1.07944262027740 -0.01259391196072 10 2 0 0 2 1 5.00000000000000
99 120.77209434195179 31.59291943629526 -1.07288956642151 -0.01405451726168 10 2 0 0 2 1 5.00000000000000
100 120.77209706492985 31.59291546394493 -1.06499159336090 -0.02018909715116 10 2 0 0 2 1 5.00000000000000
101 120.77210002800176 31.59291123362213 -1.05386960506439 -0.02071041613817 10 2 0 0 2 1 5.00000000000000
102 120.77210325720114 31.59290679719409 -1.04200363159180 -0.02343717962503 10 2 0 0 2 1 5.00000000000000
103 120.77210658259109 31.59290251005840 -1.02862262725830 -0.02455494366586 10 2 0 0 2 1 5.00000000000000
104 120.77211014813383 31.59289797898168 -1.01422858238220 -0.02580873481929 10 2 0 0 2 1 5.00000000000000
105 120.77211348902857 31.59289382927956 -0.99980860948563 -0.02673660963774 10 2 0 0 2 1 5.00000000000000
106 120.77211689189987 31.59288980645320 -0.98489463329315 -0.02919754944742 10 2 0 0 2 1 5.00000000000000
107 120.77212064143937 31.59288565331963 -0.96805661916733 -0.03167035430670 10 2 0 0 2 1 5.00000000000000
108 120.77212416004234 31.59288187268909 -0.95234060287476 -0.03184897080064 10 2 0 0 2 1 5.00000000000000
109 120.77212769674071 31.59287817679998 -0.93700963258743 -0.02915594540536 10 2 0 0 2 1 5.00000000000000
110 120.77213150109996 31.59287433114110 -0.92082262039185 -0.02957286313176 10 2 0 0 2 1 5.00000000000000
111 120.77213507019704 31.59287083483333 -0.90599364042282 -0.02621593698859 10 2 0 0 2 1 5.00000000000000
112 120.77213869734402 31.59286746013035 -0.89205563068390 -0.02832689881325 10 2 0 0 2 1 5.00000000000000
113 120.77214240877377 31.59286419563438 -0.87797063589096 -0.03069751523435 10 2 0 0 2 1 5.00000000000000
114 120.77214638565218 31.59286071642163 -0.86328959465027 -0.02727326937020 10 2 0 0 2 1 5.00000000000000
115 120.77215063646210 31.59285708727729 -0.84767961502075 -0.03047234192491 10 2 0 0 2 1 5.00000000000000
116 120.77215464861571 31.59285376123046 -0.83256560564041 -0.02709273435175 10 2 0 0 2 1 5.00000000000000
117 120.77215901376373 31.59285035671070 -0.81796562671661 -0.02691807784140 10 2 0 0 2 1 5.00000000000000
118 120.77216336402411 31.59284702400186 -0.80420762300491 -0.02379078604281 10 2 0 0 2 1 5.00000000000000
119 120.77216737627754 31.59284390844797 -0.79288363456726 -0.02211626060307 10 2 0 0 2 1 5.00000000000000
120 120.77217164057990 31.59284063028221 -0.78135263919830 -0.01950611546636 10 2 0 0 2 1 5.00000000000000
121 120.77217590961793 31.59283740446999 -0.77280360460281 -0.01418475806713 10 2 0 0 2 1 5.00000000000000
122 120.77217985843320 31.59283439739058 -0.76734560728073 -0.01075996458530 10 2 0 0 2 1 5.00000000000000
123 120.77218402113455 31.59283122380519 -0.76282858848572 -0.00858443789184 10 2 0 0 2 1 5.00000000000000
124 120.77218843940973 31.59282790708917 -0.75856459140778 -0.00614709360525 10 2 0 0 2 1 5.00000000000000
125 120.77219255637975 31.59282482866218 -0.75484961271286 -0.00844553858042 10 2 0 0 2 1 5.00000000000000
126 120.77219665385041 31.59282180843278 -0.75170558691025 -0.00707207946107 10 2 0 0 2 1 5.00000000000000
127 120.77220098228590 31.59281862882340 -0.74983662366867 -0.00160730013158 10 2 0 0 2 1 5.00000000000000
128 120.77220502914598 31.59281564184453 -0.74930763244629 -0.00061234028544 10 2 0 0 2 1 5.00000000000000
129 120.77220929088850 31.59281246552213 -0.74956762790680 0.00277003785595 10 2 0 0 2 1 5.00000000000000
130 120.77221325444832 31.59280944735396 -0.75191062688828 0.00635643722489 10 2 0 0 2 1 5.00000000000000
131 120.77221719620509 31.59280639657180 -0.75681960582733 0.01236375421286 10 2 0 0 2 1 5.00000000000000
132 120.77222127962683 31.59280310302179 -0.76499563455582 0.01974214054644 10 2 0 0 2 1 5.00000000000000
133 120.77222506656318 31.59279989216386 -0.77672260999680 0.02604335546494 10 2 0 0 2 1 5.00000000000000
134 120.77222872825310 31.59279657024789 -0.79040259122849 0.02922530099750 10 2 0 0 2 1 5.00000000000000
135 120.77223255322743 31.59279295900801 -0.80533963441849 0.03001395054162 10 2 0 0 2 1 5.00000000000000
136 120.77223608966368 31.59278952164289 -0.82176762819290 0.03302196040750 10 2 0 0 2 1 5.00000000000000
137 120.77223971799789 31.59278575648917 -0.84017562866211 0.03658572211862 10 2 0 0 2 1 5.00000000000000
138 120.77224303531675 31.59278218608370 -0.85815364122391 0.03691170364618 10 2 0 0 2 1 5.00000000000000
139 120.77224631653192 31.59277851198433 -0.87727761268616 0.03957354649901 10 2 0 0 2 1 5.00000000000000
140 120.77224969248714 31.59277454988232 -0.89794760942459 0.03743085637689 10 2 0 0 2 1 5.00000000000000
141 120.77225278620169 31.59277081702974 -0.91758561134338 0.03948573768139 10 2 0 0 2 1 5.00000000000000
142 120.77225601011997 31.59276677868661 -0.93832659721375 0.03750729188323 10 2 0 0 2 1 5.00000000000000
143 120.77225896120635 31.59276286188592 -0.95794463157654 0.03693435713649 10 2 0 0 2 1 5.00000000000000
144 120.77226185174696 31.59275891020609 -0.97585159540176 0.03194776549935 10 2 0 0 2 1 5.00000000000000
145 120.77226489392565 31.59275465351874 -0.99294161796570 0.02836966328323 10 2 0 0 2 1 5.00000000000000
146 120.77226763690945 31.59275059582877 -1.00635361671448 0.02298040874302 10 2 0 0 2 1 5.00000000000000
147 120.77227039269427 31.59274647907810 -1.01635956764221 0.01292340643704 10 2 0 0 2 1 5.00000000000000
148 120.77227341273314 31.59274209164826 -1.02355563640594 0.01473519764841 10 2 0 0 2 1 5.00000000000000
149 120.77227628046232 31.59273790171447 -1.03152155876160 0.01304677501321 10 2 0 0 2 1 5.00000000000000
150 120.77227896825389 31.59273391067659 -1.03876459598541 0.01345755811781 10 2 0 0 2 1 5.00000000000000
151 120.77228182730852 31.59272953831642 -1.04585158824921 0.01537561416626 10 2 0 0 2 1 5.00000000000000
152 120.77228423206228 31.59272549092720 -1.05332863330841 0.01419327221811 10 2 0 0 2 1 5.00000000000000
153 120.77228684721133 31.59272114890454 -1.06088161468506 0.01475723087788 10 2 0 0 2 1 5.00000000000000
154 120.77228929314386 31.59271705348931 -1.06803560256958 0.01395731884986 10 2 0 0 2 1 5.00000000000000
155 120.77229178909813 31.59271284200831 -1.07607662677765 0.01551079098135 10 2 0 0 2 1 5.00000000000000
156 120.77229416277954 31.59270878311684 -1.08283865451813 0.01315871346742 10 2 0 0 2 1 5.00000000000000
157 120.77229671381335 31.59270446682589 -1.09023559093475 0.01263744011521 10 2 0 0 2 1 5.00000000000000
158 120.77229926229140 31.59270010406130 -1.09649860858917 0.01092334650457 10 2 0 0 2 1 5.00000000000000
159 120.77230194387819 31.59269542765229 -1.10237562656403 0.00986326951534 10 2 0 0 2 1 5.00000000000000
160 120.77230431639344 31.59269095361217 -1.10798263549805 0.00942628271878 10 2 0 0 2 1 5.00000000000000
161 120.77230656227781 31.59268682391039 -1.11271262168884 0.01032115984708 10 2 0 0 2 1 5.00000000000000
162 120.77230898234609 31.59268235597094 -1.11757159233093 0.00766068464145 10 2 0 0 2 1 5.00000000000000
163 120.77231148070567 31.59267794568368 -1.12159657478333 0.00651285564527 10 2 0 0 2 1 5.00000000000000
164 120.77231381042070 31.59267381588200 -1.12395262718201 0.00407606409863 10 2 0 0 2 1 5.00000000000000
165 120.77231634273308 31.59266940279987 -1.12564265727997 0.00450103450567 10 2 0 0 2 1 5.00000000000000
166 120.77231901077830 31.59266510328257 -1.12653660774231 0.00230385875329 10 2 0 0 2 1 5.00000000000000
167 120.77232152236176 31.59266108625355 -1.12722861766815 0.00165596185252 10 2 0 0 2 1 5.00000000000000
168 120.77232436312653 31.59265676773146 -1.12739360332489 -0.00077082484495 10 2 0 0 2 1 5.00000000000000
169 120.77232715239541 31.59265239983420 -1.12793564796448 0.00151254958473 10 2 0 0 2 1 5.00000000000000
170 120.77232976778440 31.59264832249483 -1.12836456298828 -0.00022767038899 10 2 0 0 2 1 5.00000000000000
171 120.77233258871505 31.59264391863836 -1.12859761714935 -0.00042472948553 10 2 0 0 2 1 5.00000000000000
172 120.77233525060817 31.59263939150842 -1.12838757038116 -0.00274773081765 10 2 0 0 2 1 5.00000000000000
173 120.77233789624620 31.59263482050294 -1.12800264358521 -0.00046465880587 10 2 0 0 2 1 5.00000000000000
174 120.77234037311305 31.59263059741428 -1.12763965129852 -0.00002144222162 10 2 0 0 2 1 5.00000000000000
175 120.77234302066833 31.59262606792984 -1.12741756439209 -0.00028649126762 10 2 0 0 2 1 5.00000000000000
176 120.77234568374097 31.59262158266403 -1.12773764133453 -0.00084449339192 10 2 0 0 2 1 5.00000000000000
177 120.77234816432758 31.59261745537031 -1.12808656692505 0.00049682101235 10 2 0 0 2 1 5.00000000000000
178 120.77235084380294 31.59261303982791 -1.12761259078979 -0.00073874666123 10 2 0 0 2 1 5.00000000000000
179 120.77235348566715 31.59260865440283 -1.12760460376740 0.00013431994012 10 2 0 0 2 1 5.00000000000000
180 120.77235592946062 31.59260460141199 -1.12774765491486 -0.00016943975061 10 2 0 0 2 1 5.00000000000000
181 120.77235855309362 31.59260027285985 -1.12765657901764 0.00014717137674 10 2 0 0 2 1 5.00000000000000
182 120.77236118427261 31.59259597211954 -1.12781465053558 0.00174554192927 10 2 0 0 2 1 5.00000000000000
183 120.77236401537202 31.59259156327420 -1.12763762474060 0.00199946598150 10 2 0 0 2 1 5.00000000000000
184 120.77236657142919 31.59258752663193 -1.12725663185120 0.00059824058553 10 2 0 0 2 1 5.00000000000000
185 120.77236908527004 31.59258340853687 -1.12736058235168 0.00053007761016 10 2 0 0 2 1 5.00000000000000
186 120.77237172697417 31.59257902593200 -1.12677264213562 -0.00226907175966 10 2 0 0 2 1 5.00000000000000
