Id Lon Lat heading curvature mode SpeedMode EventMode OppositeSideMode LaneNum LaneSeq LaneWidth
0 120.76130673240134 31.59722589684668 0.64694041013718 -0.28863340616226 10 3 3 0 0 1 3.50000000000000
1 120.76131107083307 31.59722850804929 0.62766140699387 0.04502640292048 10 3 0 0 0 1 3.50000000000000
2 120.76131573830422 31.59723092118576 0.60464036464691 0.04717595875263 10 3 0 0 0 1 3.50000000000000
3 120.76132046801710 31.59723324876201 0.58075839281082 0.04749117791653 10 3 0 0 0 1 3.50000000000000
4 120.76132530276563 31.59723546763329 0.55617237091064 0.05041964352131 10 3 0 0 0 1 3.50000000000000
5 120.76133010095127 31.59723751944543 0.53084039688110 0.05307580903172 10 3 0 0 0 1 3.50000000000000
6 120.76133504594350 31.59723947294927 0.50476139783859 0.05097952857614 10 3 0 0 0 1 3.50000000000000
7 120.76134020788901 31.59724140979705 0.47904139757156 0.04867881163955 10 3 0 0 0 1 3.50000000000000
8 120.76134549716038 31.59724327992399 0.45458438992500 0.04530834034085 10 3 0 0 0 1 3.50000000000000
9 120.76135059992144 31.59724497540801 0.43214437365532 0.04168222099543 10 3 0 0 0 1 3.50000000000000
10 120.76135592997504 31.59724668076153 0.40974938869476 0.04063620045781 10 3 0 0 0 1 3.50000000000000
11 120.76136092611434 31.59724817414569 0.38939440250397 0.04049707949162 10 3 0 0 0 1 3.50000000000000
12 120.76136636752086 31.59724975503334 0.36889538168907 0.03751512616873 10 3 0 0 0 1 3.50000000000000
13 120.76137168851085 31.59725121839418 0.34993240237236 0.03228344768286 10 3 0 0 0 1 3.50000000000000
14 120.76137717782204 31.59725261181700 0.33019238710403 0.03382286056876 10 3 0 0 0 1 3.50000000000000
15 120.76138281821703 31.59725398706813 0.31347039341927 0.02924458123744 10 3 0 0 0 1 3.50000000000000
16 120.76138794198572 31.59725520801670 0.29868638515472 0.02768145501614 10 3 0 0 0 1 3.50000000000000
17 120.76139320149557 31.59725636923750 0.28412437438965 0.02877156436443 10 3 0 0 0 1 3.50000000000000
18 120.76139850270957 31.59725755402303 0.27267739176750 0.01938800327480 10 3 0 0 0 1 3.50000000000000
19 120.76140412365984 31.59725879520285 0.26264339685440 0.01856395415962 10 3 0 0 0 1 3.50000000000000
20 120.76140936362329 31.59725988060035 0.25295239686966 0.01836078055203 10 3 0 0 0 1 3.50000000000000
21 120.76141455651212 31.59726093731655 0.24423138797283 0.01424679439515 10 3 0 0 0 1 3.50000000000000
22 120.76141968257114 31.59726198642518 0.23794938623905 0.01108147669584 10 3 0 0 0 1 3.50000000000000
23 120.76142538618178 31.59726316201864 0.23219439387321 0.01113505661488 10 3 0 0 0 1 3.50000000000000
24 120.76143103489498 31.59726429281585 0.22727638483047 0.00723192375153 10 3 0 0 0 1 3.50000000000000
25 120.76143661369657 31.59726542133685 0.22284938395023 0.00751776341349 10 3 0 0 0 1 3.50000000000000
26 120.76144180767896 31.59726645761985 0.22009238600731 0.00508634094149 10 3 0 0 0 1 3.50000000000000
27 120.76144723175580 31.59726752781772 0.21753138303757 0.00454110233113 10 3 0 0 0 1 3.50000000000000
28 120.76145256958675 31.59726859632784 0.21540138125420 0.00292649213225 10 3 0 0 0 1 3.50000000000000
29 120.76145785122743 31.59726966564375 0.21516138315201 -0.00039758108323 10 3 0 0 0 1 3.50000000000000
30 120.76146304925977 31.59727071195502 0.21464838087559 0.00049401749857 10 3 0 0 0 1 3.50000000000000
31 120.76146817889963 31.59727176078665 0.21438038349152 -0.00095215142937 10 3 0 0 0 1 3.50000000000000
32 120.76147380828992 31.59727291278578 0.21531338989735 -0.00179869076237 10 3 0 0 0 1 3.50000000000000
33 120.76147907763233 31.59727402901894 0.21622838079929 -0.00314910360612 10 3 0 0 0 1 3.50000000000000
34 120.76148453163120 31.59727518550239 0.21805039048195 -0.00458103930578 10 3 0 0 0 1 3.50000000000000
35 120.76148991463296 31.59727632552035 0.21939139068127 -0.00280696223490 10 3 0 0 0 1 3.50000000000000
36 120.76149522827816 31.59727746342386 0.22134338319302 -0.00082013843348 10 3 0 0 0 1 3.50000000000000
37 120.76150046048318 31.59727857429295 0.22270938754082 -0.00412362720817 10 3 0 0 0 1 3.50000000000000
38 120.76150561553106 31.59727971166903 0.22473438084126 -0.00641380995512 10 3 0 0 0 1 3.50000000000000
39 120.76151095272620 31.59728088612546 0.22738738358021 -0.00305299554020 10 3 0 0 0 1 3.50000000000000
40 120.76151648411384 31.59728214102619 0.23016539216042 -0.00666146026924 10 3 0 0 0 1 3.50000000000000
41 120.76152198536975 31.59728340796884 0.23362338542938 -0.00566109549254 10 3 0 0 0 1 3.50000000000000
42 120.76152745777655 31.59728467789372 0.23708139359951 -0.00481424573809 10 3 0 0 0 1 3.50000000000000
43 120.76153297512681 31.59728599420930 0.24064439535141 -0.01057124976069 10 3 0 0 0 1 3.50000000000000
44 120.76153831241650 31.59728732205152 0.24496439099312 -0.01269945967942 10 3 0 0 0 1 3.50000000000000
45 120.76154347426058 31.59728863425676 0.25039339065552 -0.01406224723905 10 3 0 0 0 1 3.50000000000000
46 120.76154872312306 31.59729002682604 0.25761139392853 -0.01518708840013 10 3 0 0 0 1 3.50000000000000
47 120.76155396340972 31.59729149453947 0.26679137349129 -0.01937415823340 10 3 0 0 0 1 3.50000000000000
48 120.76155909037394 31.59729305898379 0.27866438031197 -0.02602333761752 10 3 0 0 0 1 3.50000000000000
49 120.76156409771275 31.59729471939589 0.29222738742828 -0.02779934182763 10 3 0 0 0 1 3.50000000000000
50 120.76156969433096 31.59729665256405 0.30916139483452 -0.03176843002439 10 3 0 0 0 1 3.50000000000000
51 120.76157492501888 31.59729859783050 0.32839339971542 -0.03987341001630 10 3 0 0 0 1 3.50000000000000
52 120.76158002337681 31.59730067586823 0.35064339637756 -0.04668463021517 10 3 0 0 0 1 3.50000000000000
53 120.76158495972480 31.59730291627320 0.37690138816833 -0.05415664613247 10 3 0 0 0 1 3.50000000000000
54 120.76158972934292 31.59730533659156 0.40807840228081 -0.06451991945505 10 3 0 0 0 1 3.50000000000000
55 120.76159430394652 31.59730797655100 0.44562938809395 -0.07742825895548 10 3 0 0 0 1 3.50000000000000
56 120.76159876812734 31.59731107387779 0.49405637383461 -0.09962921589613 10 3 0 0 0 1 3.50000000000000
57 120.76160271575711 31.59731430882059 0.54670339822769 -0.10476139932871 10 3 0 0 0 1 3.50000000000000
58 120.76160635988055 31.59731771141034 0.60189735889435 -0.11519581824541 10 3 0 0 0 1 3.50000000000000
59 120.76160972060904 31.59732135397287 0.66009336709976 -0.11640920490026 10 3 0 0 0 1 3.50000000000000
60 120.76161283752801 31.59732523162970 0.71944940090179 -0.12158136069775 10 3 0 0 0 1 3.50000000000000
61 120.76161558506534 31.59732914397051 0.77882540225983 -0.12210017442703 10 3 0 0 0 1 3.50000000000000
62 120.76161815948463 31.59733346102316 0.84276837110519 -0.12239252030849 10 3 0 0 0 1 3.50000000000000
63 120.76162041843557 31.59733792393421 0.90678137540817 -0.12402237951756 10 3 0 0 0 1 3.50000000000000
64 120.76162243877771 31.59734250378807 0.97002738714218 -0.12065670639277 10 3 0 0 0 1 3.50000000000000
65 120.76162421120632 31.59734715582272 1.03112936019897 -0.10997539758682 10 3 0 0 0 1 3.50000000000000
66 120.76162568735884 31.59735172937349 1.08847236633301 -0.10740508139133 10 3 0 0 0 1 3.50000000000000
67 120.76162695141602 31.59735621499408 1.13906741142273 -0.09654724597931 10 3 0 0 0 1 3.50000000000000
68 120.76162812195304 31.59736080858416 1.18407535552979 -0.08216630667448 10 3 0 0 0 1 3.50000000000000
69 120.76162918668254 31.59736552002882 1.22686135768890 -0.08081819862127 10 3 0 0 0 1 3.50000000000000
70 120.76163012148270 31.59737038137797 1.26650035381317 -0.06539846956730 10 3 0 0 0 1 3.50000000000000
71 120.76163094724677 31.59737508584846 1.29902136325836 -0.05834492668509 10 3 0 0 0 1 3.50000000000000
72 120.76163164572890 31.59737959863364 1.32818639278412 -0.05787988752127 10 3 0 0 0 1 3.50000000000000
73 120.76163225135765 31.59738421151317 1.35540437698364 -0.04822133854032 10 3 0 0 0 1 3.50000000000000
74 120.76163283169645 31.59738890316118 1.37910342216492 -0.04460658133030 10 3 0 0 0 1 3.50000000000000
75 120.76163330649013 31.59739368413359 1.40234434604645 -0.04536049067974 10 3 0 0 0 1 3.50000000000000
76 120.76163365190141 31.59739854939200 1.42541933059692 -0.04113745316863 10 3 0 0 0 1 3.50000000000000
77 120.76163388157686 31.59740321009911 1.44606840610504 -0.04106025770307 10 3 0 0 0 1 3.50000000000000
78 120.76163397898414 31.59740822100450 1.46815037727356 -0.03996729850769 10 3 0 0 0 1 3.50000000000000
79 120.76163399771487 31.59741273192191 1.48592734336853 -0.03483010083437 10 3 0 0 0 1 3.50000000000000
80 120.76163398398982 31.59741729652633 1.50175034999847 -0.03043870441616 10 3 0 0 0 1 3.50000000000000
81 120.76163388833285 31.59742192015237 1.51731443405151 -0.03066172450781 10 3 0 0 0 1 3.50000000000000
82 120.76163369945492 31.59742660561315 1.53314435482025 -0.03154389187694 10 3 0 0 0 1 3.50000000000000
83 120.76163343003535 31.59743135835472 1.54889440536499 -0.02957344800234 10 3 0 0 0 1 3.50000000000000
84 120.76163305485234 31.59743646069988 1.56418037414551 -0.02382239513099 10 3 0 0 0 1 3.50000000000000
85 120.76163264924098 31.59744129193725 1.57677638530731 -0.02474907226861 10 3 0 0 0 1 3.50000000000000
86 120.76163216731445 31.59744616179815 1.59025633335114 -0.02389138005674 10 3 0 0 0 1 3.50000000000000
87 120.76163166212064 31.59745106900177 1.60242342948914 -0.02393599785864 10 3 0 0 0 1 3.50000000000000
88 120.76163100194995 31.59745600962212 1.61523640155792 -0.02280215919018 10 3 0 0 0 1 3.50000000000000
89 120.76163027962929 31.59746100298817 1.62602639198303 -0.01997023075819 10 3 0 0 0 1 3.50000000000000
90 120.76162955715571 31.59746603902413 1.63815343379974 -0.02561550401151 10 3 0 0 0 1 3.50000000000000
91 120.76162877188774 31.59747111757684 1.64985740184784 -0.01728929951787 10 3 0 0 0 1 3.50000000000000
92 120.76162793181625 31.59747589948973 1.65913140773773 -0.02160704322159 10 3 0 0 0 1 3.50000000000000
93 120.76162709399806 31.59748037651445 1.66851842403412 -0.01966611482203 10 3 0 0 0 1 3.50000000000000
94 120.76162622520428 31.59748488515803 1.67744541168213 -0.01956227421761 10 3 0 0 0 1 3.50000000000000
95 120.76162529636191 31.59748940195536 1.68706834316254 -0.01950987428427 10 3 0 0 0 1 3.50000000000000
96 120.76162433205951 31.59749394343363 1.69592344760895 -0.01693584769964 10 3 0 0 0 1 3.50000000000000
97 120.76162331533740 31.59749849964462 1.70451843738556 -0.01610191725194 10 3 0 0 0 1 3.50000000000000
98 120.76162226027519 31.59750305464199 1.71218943595886 -0.01495358161628 10 3 0 0 0 1 3.50000000000000
99 120.76162118524748 31.59750763087167 1.71957433223724 -0.01491963025182 10 3 0 0 0 1 3.50000000000000
100 120.76161996332524 31.59751253032991 1.72797942161560 -0.01367208175361 10 3 0 0 0 1 3.50000000000000
101 120.76161875010861 31.59751709487566 1.73594641685486 -0.01587396301329 10 3 0 0 0 1 3.50000000000000
102 120.76161752249023 31.59752164500653 1.74247741699219 -0.01095604337752 10 3 0 0 0 1 3.50000000000000
103 120.76161632393783 31.59752619351175 1.74873638153076 -0.01209905743599 10 3 0 0 0 1 3.50000000000000
104 120.76161509425471 31.59753069952600 1.75497543811798 -0.01325147505850 10 3 0 0 0 1 3.50000000000000
105 120.76161384944457 31.59753513950291 1.76016235351562 -0.00909457262605 10 3 0 0 0 1 3.50000000000000
106 120.76161261692400 31.59753953690640 1.76407134532928 -0.00873351562768 10 3 0 0 0 1 3.50000000000000
107 120.76161119055064 31.59754451196530 1.76867735385895 -0.00647693919018 10 3 0 0 0 1 3.50000000000000
108 120.76160976528286 31.59754944017147 1.77226638793945 -0.00592345697805 10 3 0 0 0 1 3.50000000000000
109 120.76160846310682 31.59755401607066 1.77539539337158 -0.00635333731771 10 3 0 0 0 1 3.50000000000000
110 120.76160707407281 31.59755882970110 1.77918934822083 -0.00759896636009 10 3 0 0 0 1 3.50000000000000
111 120.76160566600821 31.59756359343477 1.78189742565155 -0.00569274276495 10 3 0 0 0 1 3.50000000000000
112 120.76160426122875 31.59756829828370 1.78500533103943 -0.00677474029362 10 3 0 0 0 1 3.50000000000000
113 120.76160284359612 31.59757295621511 1.78832042217255 -0.00599070545286 10 3 0 0 0 1 3.50000000000000
114 120.76160142643751 31.59757755584065 1.79142737388611 -0.00655575701967 10 3 0 0 0 1 3.50000000000000
115 120.76159999585344 31.59758211528474 1.79460835456848 -0.00564198754728 10 3 0 0 0 1 3.50000000000000
116 120.76159846185641 31.59758690601048 1.79772543907166 -0.00579726090655 10 3 0 0 0 1 3.50000000000000
117 120.76159698619084 31.59759136168703 1.80080044269562 -0.00571025861427 10 3 0 0 0 1 3.50000000000000
118 120.76159555008830 31.59759577965587 1.80372142791748 -0.00393417570740 10 3 0 0 0 1 3.50000000000000
119 120.76159411279335 31.59760014999730 1.80620443820953 -0.00328723946586 10 3 0 0 0 1 3.50000000000000
120 120.76159252219310 31.59760499857565 1.80758738517761 -0.00276725902222 10 3 0 0 0 1 3.50000000000000
121 120.76159095834538 31.59760981211774 1.80841040611267 -0.00082510506036 10 3 0 0 0 1 3.50000000000000
122 120.76158945081596 31.59761455528862 1.80880033969879 -0.00050909077981 10 3 0 0 0 1 3.50000000000000
123 120.76158806056534 31.59761891274950 1.80855333805084 -0.00058202154469 10 3 0 0 0 1 3.50000000000000
124 120.76158664080192 31.59762340385546 1.80796444416046 0.00309522449970 10 3 0 0 0 1 3.50000000000000
125 120.76158516556102 31.59762818368023 1.80677044391632 0.00181979942136 10 3 0 0 0 1 3.50000000000000
126 120.76158379567596 31.59763267302043 1.80575335025787 0.00097238511080 10 3 0 0 0 1 3.50000000000000
127 120.76158240264277 31.59763730410273 1.80501544475555 0.00140229589306 10 3 0 0 0 1 3.50000000000000
128 120.76158108239750 31.59764175128408 1.80343639850616 0.00647115707397 10 3 0 0 0 1 3.50000000000000
129 120.76157975492009 31.59764630261131 1.80231535434723 0.00444681104273 10 3 0 0 0 1 3.50000000000000
130 120.76157841999681 31.59765093013968 1.80109143257141 0.00613226788118 10 3 0 0 0 1 3.50000000000000
131 120.76157707905466 31.59765533787241 1.79896438121796 0.00466544646770 10 3 0 0 0 1 3.50000000000000
132 120.76157575632142 31.59765983173627 1.79521036148071 0.01035222411156 10 3 0 0 0 1 3.50000000000000
133 120.76157458133655 31.59766423843321 1.79053044319153 0.01130147743970 10 3 0 0 0 1 3.50000000000000
134 120.76157347191156 31.59766878843681 1.78500342369080 0.01685234345496 10 3 0 0 0 1 3.50000000000000
135 120.76157249957865 31.59767328263166 1.77633738517761 0.01625560410321 10 3 0 0 0 1 3.50000000000000
136 120.76157142205831 31.59767774999946 1.77012038230896 0.00339721981436 10 3 0 0 0 1 3.50000000000000
137 120.76157018637628 31.59768223059092 1.76697933673859 -0.00307053164579 10 3 0 0 0 1 3.50000000000000
138 120.76156905100488 31.59768666233689 1.76337838172913 0.00453576957807 10 3 0 0 0 1 3.50000000000000
139 120.76156869342705 31.59769122743008 1.74600541591644 0.07725378125906 10 3 0 0 1 1 3.50000000000000
140 120.76156898812768 31.59769583115373 1.69076037406921 0.15472245216370 10 3 0 0 1 1 3.50000000000000
141 120.76156996895011 31.59770038142177 1.62251937389374 0.14339445531368 10 3 0 0 1 1 3.50000000000000
142 120.76157135118875 31.59770485791307 1.54986333847046 0.14839668571949 10 3 0 0 1 1 3.50000000000000
143 120.76157304685238 31.59770923647178 1.47705841064453 0.14942502975464 10 3 0 0 1 1 3.50000000000000
144 120.76157508558913 31.59771351067492 1.40409135818481 0.14173901081085 10 3 0 0 1 1 3.50000000000000
145 120.76157746610198 31.59771757755494 1.33183836936951 0.14369100332260 10 3 0 0 1 1 3.50000000000000
146 120.76158024450179 31.59772154783553 1.25734138488770 0.15026874840260 10 3 0 0 1 1 3.50000000000000
147 120.76158329850915 31.59772530471189 1.18469536304474 0.14538002014160 10 3 0 0 1 1 3.50000000000000
148 120.76158651596189 31.59772889794952 1.11499142646790 0.12656196951866 10 3 0 0 1 1 3.50000000000000
149 120.76159000548977 31.59773243718982 1.05050539970398 0.12934881448746 10 3 0 0 1 1 3.50000000000000
150 120.76159368235919 31.59773592798769 0.99144136905670 0.10636609047651 10 3 0 0 1 1 3.50000000000000
151 120.76159743873613 31.59773927720909 0.94018441438675 0.09332039952278 10 3 0 0 1 1 3.50000000000000
152 120.76160120857804 31.59774249247777 0.89519840478897 0.09112078696489 10 3 0 0 1 1 3.50000000000000
153 120.76160522965344 31.59774566602243 0.85185939073563 0.08177000284195 10 3 0 0 1 1 3.50000000000000
154 120.76160938845923 31.59774851959902 0.80661237239838 0.10287943482399 10 3 0 0 1 1 3.50000000000000
155 120.76161392608134 31.59775112606555 0.75346738100052 0.11762668192387 10 3 0 0 1 1 3.50000000000000
156 120.76161863174899 31.59775341376437 0.69705337285995 0.11374956369400 10 3 0 0 1 1 3.50000000000000
157 120.76162357688555 31.59775541493600 0.63627338409424 0.11939615756273 10 3 0 0 1 1 3.50000000000000
158 120.76162849596510 31.59775709622940 0.57720440626144 0.12670625746250 10 3 0 0 1 1 3.50000000000000
159 120.76163374385904 31.59775867153066 0.51900637149811 0.10935571044683 10 3 0 0 1 1 3.50000000000000
160 120.76163888125372 31.59776005011012 0.46667739748955 0.09963104128838 10 3 0 0 1 1 3.50000000000000
161 120.76164411516774 31.59776137279014 0.42094239592552 0.07530878484249 10 3 0 0 1 1 3.50000000000000
162 120.76164925782483 31.59776273979164 0.38725838065147 0.05991674214602 10 3 0 0 1 1 3.50000000000000
163 120.76165430856085 31.59776412986205 0.36301138997078 0.04098712280393 10 3 0 0 1 1 3.50000000000000
164 120.76165939178973 31.59776558819672 0.34625840187073 0.02454200387001 10 3 0 0 1 1 3.50000000000000
165 120.76166448866873 31.59776711614914 0.33595138788223 0.01575818471611 10 3 0 0 1 1 3.50000000000000
166 120.76166977013629 31.59776874280101 0.32950237393379 0.00532518047839 10 3 0 0 1 1 3.50000000000000
167 120.76167479367865 31.59777033068121 0.32595539093018 0.00914835371077 10 3 0 0 1 1 3.50000000000000
168 120.76167999389220 31.59777191733505 0.32239639759064 0.01174844335765 10 3 0 0 1 1 3.50000000000000
169 120.76168515491990 31.59777344383284 0.31675139069557 0.01371465995908 10 3 0 0 1 1 3.50000000000000
170 120.76169026526151 31.59777487881454 0.31023138761520 0.00991900544614 10 3 0 0 1 1 3.50000000000000
171 120.76169553973848 31.59777630957529 0.30240640044212 0.01418043393642 10 3 0 0 1 1 3.50000000000000
172 120.76170095524242 31.59777771981961 0.29533538222313 0.01454803999513 10 3 0 0 1 1 3.50000000000000
173 120.76170603087371 31.59777900213554 0.28870138525963 0.01381409913301 10 3 0 0 1 1 3.50000000000000
174 120.76171150798513 31.59778035309381 0.28185439109802 0.01266815699637 10 3 0 0 1 1 3.50000000000000
175 120.76171684652229 31.59778165834411 0.27580937743187 0.00948924571276 10 3 0 0 1 1 3.50000000000000
176 120.76172231275648 31.59778294249070 0.26959338784218 0.01462409552187 10 3 0 0 1 1 3.50000000000000
177 120.76172789802298 31.59778423873692 0.26251238584518 0.01111362222582 10 3 0 0 1 1 3.50000000000000
178 120.76173303643125 31.59778538804969 0.25683039426804 0.00964927673340 10 3 0 0 1 1 3.50000000000000
179 120.76173857300167 31.59778659425839 0.24999639391899 0.01296361722052 10 3 0 0 1 1 3.50000000000000
180 120.76174392435242 31.59778774189646 0.24407938122749 0.01164981257170 10 3 0 0 1 1 3.50000000000000
181 120.76174934044462 31.59778889807303 0.23784738779068 0.00945135764778 10 3 0 0 1 1 3.50000000000000
182 120.76175483941819 31.59779001186210 0.23173238337040 0.01163955871016 10 3 0 0 1 1 3.50000000000000
183 120.76176036649674 31.59779108556517 0.22492738068104 0.01115015987307 10 3 0 0 1 1 3.50000000000000
184 120.76176586666838 31.59779212823429 0.21892738342285 0.01322785113007 10 3 0 0 1 1 3.50000000000000
185 120.76177101857017 31.59779307803288 0.21215239167213 0.01272287312895 10 3 0 0 1 1 3.50000000000000
186 120.76177644871187 31.59779404720728 0.20577038824558 0.01086588576436 10 3 0 0 1 1 3.50000000000000
187 120.76178183172978 31.59779499638836 0.19920939207077 0.01316268369555 10 3 0 0 1 1 3.50000000000000
188 120.76178722643098 31.59779588847917 0.19285038113594 0.01342466007918 10 3 0 0 1 1 3.50000000000000
