Id Lon Lat heading curvature mode SpeedMode EventMode LaneNum LaneSeq LaneWidth
7406,121.20310280666716,31.29163149598989,0.68125736713409,0.12829354405403,3,3,3,1,1,3.5
7407,121.20310282330364,31.2916315652717,0.68128341436386,0.2317124158144,3,3,3,1,1,3.5
7408,121.20310693500022,31.29163466886287,0.68167340755463,-0.00690291030332,3,3,0,1,1,3.5
7409,121.20311110533378,31.29163771120545,0.6818333864212,0.001963801682,3,3,0,1,1,3.5
7410,121.203115335693,31.29164084293566,0.68345940113068,-0.00667777797207,3,3,0,1,1,3.5
7411,121.20311935757243,31.29164389857755,0.68636238574982,-0.00731376558542,3,3,0,1,1,3.5
7412,121.20312329285035,31.29164694890526,0.68936240673065,-0.00610924419016,3,3,0,1,1,3.5
7413,121.20312743463559,31.29165025031583,0.6948254108429,-0.01254468970001,3,3,0,1,1,3.5
7414,121.2031316109234,31.29165357582692,0.70086538791656,-0.01300113927573,3,3,0,1,1,3.5
7415,121.20313579886276,31.29165693065733,0.70753139257431,-0.01221963949502,3,3,0,1,1,3.5
7416,121.20313989321772,31.29166033876237,0.71495741605759,-0.01317129470408,3,3,0,1,1,3.5
7417,121.20314393656841,31.2916637756686,0.72283238172531,-0.01511745993048,3,3,0,1,1,3.5
7418,121.2031478778575,31.29166727258129,0.73298740386963,-0.01884517818689,3,3,0,1,1,3.5
7419,121.20315165056897,31.29167073195214,0.74465036392212,-0.02295896038413,3,3,0,1,1,3.5
7420,121.20315525308129,31.29167414737273,0.75709640979767,-0.02557045407593,3,3,0,1,1,3.5
7421,121.20315904684965,31.29167790441803,0.77224236726761,-0.02652754634619,3,3,0,1,1,3.5
7422,121.20316261266741,31.29168152805082,0.78586238622665,-0.02740129083395,3,3,0,1,1,3.5
7423,121.2031659509353,31.2916850382636,0.80017340183258,-0.02916825376451,3,3,0,1,1,3.5
7424,121.20316946687133,31.29168879964821,0.81541138887405,-0.03093221411109,3,3,0,1,1,3.5
7425,121.20317295407567,31.29169258716059,0.83005738258362,-0.02690924331546,3,3,0,1,1,3.5
7426,121.20317616459283,31.29169621556674,0.84450840950012,-0.02701804973185,3,3,0,1,1,3.5
7427,121.20317945966761,31.2917000763116,0.86074739694595,-0.03404299914837,3,3,0,1,1,3.5
7428,121.20318279541944,31.2917041652064,0.87893438339233,-0.03298046812415,3,3,0,1,1,3.5
7429,121.20318579567115,31.29170801711291,0.89636439085007,-0.03368208184838,3,3,0,1,1,3.5
7430,121.20318874664218,31.29171191586023,0.91333037614822,-0.03192891925573,3,3,0,1,1,3.5
7431,121.20319170952625,31.29171600660327,0.9304683804512,-0.032067514956,3,3,0,1,1,3.5
7432,121.20319444789104,31.29172006123473,0.94861137866974,-0.03200409188867,3,3,0,1,1,3.5
7433,121.20319708555758,31.29172403043503,0.96560537815094,-0.03430766612291,3,3,0,1,1,3.5
7434,121.2031996758047,31.29172802939108,0.98276740312576,-0.03169859200716,3,3,0,1,1,3.5
7435,121.20320225368025,31.29173206221153,0.99877536296844,-0.03245582804084,3,3,0,2,1,3.5
7436,121.20320463324254,31.29173608869083,1.01449036598206,-0.03479914367199,3,3,0,2,1,3.5
7437,121.2032070315846,31.29174030732134,1.03087842464447,-0.0315681733191,3,3,0,2,1,3.5
7438,121.20320937686401,31.29174461683946,1.04749643802643,-0.03373041003942,3,3,0,2,1,3.5
7439,121.2032115618883,31.29174882716616,1.06415736675262,-0.03395573049784,3,3,0,2,1,3.5
7440,121.20321374949339,31.29175310662216,1.08078634738922,-0.03132702410221,3,3,0,2,1,3.5
7441,121.2032158001336,31.29175728023871,1.09622144699097,-0.02823509462178,3,3,0,2,1,3.5
7442,121.2032177621874,31.29176156343201,1.11197340488434,-0.03507902100682,10,3,0,2,1,3.5
7443,121.20321959979962,31.29176584780057,1.12783443927765,-0.03597129881382,10,3,0,2,1,3.5
7444,121.20322135999551,31.29177025215395,1.14539742469788,-0.03059460222721,10,3,0,2,1,3.5
7445,121.20322300307792,31.2917746104526,1.16337740421295,-0.03403601050377,10,3,0,2,1,3.5
7446,121.2032246934379,31.29177914916209,1.1815984249115,-0.03520218655467,10,3,0,2,1,3.5
7447,121.20322620176266,31.29178351978779,1.19925034046173,-0.03012477979064,10,3,0,2,1,3.5
7448,121.203227616835,31.29178798076836,1.21649837493896,-0.02980126254261,10,3,0,2,1,3.5
7449,121.20322895947031,31.29179251341277,1.23339235782623,-0.03765618056059,10,3,0,2,1,3.5
7450,121.20323025041007,31.29179732105754,1.25286042690277,-0.03756187483668,10,3,0,2,1,3.5
7451,121.20323140196571,31.29180189752471,1.27187037467957,-0.03812089189887,10,3,0,2,1,3.5
7452,121.20323235284019,31.29180642430439,1.29199540615082,-0.03850199282169,10,3,0,2,1,3.5
7453,121.20323320429378,31.29181098254892,1.31310844421387,-0.04706680029631,10,3,0,2,1,3.5
7454,121.20323391084787,31.29181563588226,1.33575534820557,-0.05376881361008,10,3,0,2,1,3.5
7455,121.20323433266553,31.29182017981132,1.36377441883087,-0.0563683398068,10,3,0,2,1,3.5
7456,121.2032343696782,31.29182481996089,1.40156137943268,-0.07680704444647,10,3,0,2,1,3.5
7457,121.20323396269202,31.2918294864923,1.44720542430878,-0.0914302021265,10,3,0,2,1,3.5
7458,121.20323321938625,31.29183416256661,1.49780142307281,-0.10496892035007,10,3,0,2,1,3.5
7459,121.20323215913568,31.29183862809355,1.55125641822815,-0.11214749515057,10,3,0,2,1,3.5
7460,121.2032306675718,31.29184313131497,1.60890138149261,-0.12305095791817,10,3,0,2,1,3.5
7461,121.20322882234699,31.29184747710243,1.66938138008118,-0.11892390996218,10,3,0,2,1,3.5
7462,121.20322662095194,31.2918518941119,1.73198437690735,-0.12005483359098,10,3,0,2,1,3.5
7463,121.20322425254136,31.29185594171767,1.79160535335541,-0.12440017610788,10,3,0,2,1,3.5
7464,121.20322148242614,31.29186012556962,1.85351240634918,-0.1153371706605,10,3,0,2,1,3.5
7465,121.20321842696481,31.29186402552575,1.91382539272308,-0.12096816301346,10,3,0,2,1,3.5
7466,121.20321524037247,31.29186772996593,1.97284734249115,-0.11759568750858,10,3,0,2,1,3.5
7467,121.2032119125456,31.29187122047134,2.02942943572998,-0.11205700039864,10,3,0,2,1,3.5
7468,121.20320847202433,31.29187463134323,2.08096647262573,-0.10157170146704,10,3,0,2,1,3.5
7469,121.2032050269712,31.29187807250206,2.12191438674927,-0.06920971721411,10,3,0,2,1,3.5
7470,121.20320174256776,31.29188162874394,2.14978241920471,-0.04001515731215,10,3,0,2,1,3.5
7471,121.2031984409974,31.29188535656683,2.16595149040222,-0.02787692658603,10,3,0,3,1,3.5
7472,121.20319489368657,31.29188897958741,2.18047142028809,-0.02041779458523,10,3,0,3,1,3.5
7473,121.20319131256647,31.29189263091661,2.19204235076904,-0.01921707205474,10,3,0,3,1,3.5
7474,121.20318796108116,31.29189624779369,2.19696736335754,-0.00451948912814,10,3,0,3,1,3.5
7475,121.20318472065105,31.29189980567583,2.19935631752014,-0.00152059725951,10,3,0,3,1,3.5
7476,121.20318127754831,31.2919036821353,2.19873046875,0.00096452474827,10,3,0,3,1,3.5
7477,121.20317812254379,31.29190729632015,2.19799447059631,0.00331070763059,10,3,0,3,1,3.5
7478,121.20317466201325,31.2919112562027,2.19675135612488,0.00234335986897,10,3,0,3,1,3.5
7479,121.2031712118228,31.2919151349991,2.19671440124512,0.00082678929903,10,3,0,3,1,3.5
7480,121.2031680285435,31.29191874938693,2.19646048545837,-6.803807628e-05,10,3,0,3,1,3.5
7481,121.2031646340354,31.29192270437553,2.19594931602478,0.00090468145208,10,3,0,3,1,3.5
7482,121.20316136934782,31.29192641518541,2.19567537307739,-0.00054355512839,10,3,0,3,1,3.5
7483,121.2031579851547,31.29193029187244,2.19517135620117,0.00039468961768,10,3,0,3,1,3.5
7484,121.20315481577688,31.2919339036121,2.19505429267883,0.00247271452099,10,3,0,3,1,3.5
7485,121.20315146031892,31.29193763631226,2.19497847557068,-0.00084451038856,10,3,0,3,1,3.5
7486,121.20314797359505,31.2919415703918,2.19483733177185,-0.0001853408321,10,3,0,3,1,3.5
7487,121.20314437501139,31.29194564068473,2.19461035728455,-0.00024665382807,10,3,0,3,1,3.5
7488,121.20314100547857,31.29194943534302,2.19466328620911,-0.00149313383736,10,3,0,3,1,3.5
7489,121.20313770024235,31.29195312467941,2.19443035125732,0.00085315760225,10,3,0,3,1,3.5
7490,121.20313426506847,31.29195685196668,2.19517230987549,-0.00229923170991,10,3,0,3,1,3.5
7491,121.20313071770994,31.29196064669054,2.19695138931274,-0.00137228704989,10,3,0,3,1,3.5
7492,121.20312736210792,31.29196422578411,2.19931936264038,-0.00598105648533,10,3,0,3,1,3.5
7493,121.20312394129535,31.29196791764402,2.20129728317261,-0.00578277185559,10,3,0,3,1,3.5
7494,121.20312039330366,31.29197171402419,2.20423245429993,-0.00636730715632,10,3,0,3,1,3.5
7495,121.20311699093772,31.29197532459905,2.20731449127197,-0.00288847344927,10,3,0,3,1,3.5
7496,121.20311349632512,31.29197898567648,2.21016550064087,-0.0094701256603,10,3,0,3,1,3.5
7497,121.2031101031502,31.29198266374359,2.21210932731628,-0.00288313813508,10,3,0,3,1,3.5
7498,121.20310678625324,31.29198634702339,2.21437430381775,0.00214247033,10,3,0,3,1,3.5
7499,121.20310341833415,31.29198992832454,2.21627640724182,-0.01102393399924,10,3,0,3,1,3.5
7500,121.20310006722539,31.29199354929043,2.21662735939026,-0.00137849338353,10,3,0,3,1,3.5
7501,121.20309665122832,31.29199716225796,2.21877241134644,-0.0045302901417,10,3,0,3,1,3.5
7502,121.20309327543076,31.29200078564841,2.21939849853516,-0.00281217391603,10,3,0,3,1,3.5
7503,121.20308970942713,31.29200458220252,2.22052645683289,-0.00033436893136,10,3,0,3,1,3.5
7504,121.20308617507904,31.29200831766569,2.22192549705505,-0.00630769925192,10,3,0,3,1,3.5
7505,121.20308275032578,31.29201194927575,2.22256946563721,-0.00061837816611,10,3,0,3,1,3.5
7506,121.20307920328163,31.2920156651365,2.22570848464966,-0.00620940653607,10,3,0,3,1,3.5
7507,121.20307582185332,31.29201924997603,2.22645139694214,-0.00165460212156,10,3,0,3,1,3.5
7508,121.20307213433759,31.29202312235221,2.22849345207214,-0.00363281229511,10,3,0,3,1,3.5
7509,121.20306817189599,31.29202729101072,2.23018646240234,-0.00255875010043,10,3,0,3,1,3.5
7510,121.20306440199278,31.29203121440226,2.23180532455444,-0.00434334622696,10,3,0,3,1,3.5
7511,121.20306061398153,31.29203512057223,2.23403644561768,-0.0037722797133,10,3,0,3,1,3.5
7512,121.20305705676185,31.29203875553465,2.23628234863281,-0.00532336998731,10,3,0,3,1,3.5
7513,121.203053290939,31.29204263302556,2.2380793094635,-0.00356360827573,10,3,0,3,1,3.5
7514,121.20304953486345,31.29204654714189,2.23963332176208,-0.00167876016349,10,3,0,3,1,3.5
7515,121.20304601663199,31.29205021477549,2.23990345001221,0.0001293389214,10,3,0,3,1,3.5
7516,121.20304225353034,31.29205413857425,2.24004435539246,-2.524666343e-05,10,3,0,3,1,3.5
7517,121.20303848602099,31.29205805157109,2.23930644989014,-0.00131396355573,10,3,0,3,1,3.5
7518,121.20303494716696,31.29206168724626,2.23985934257507,0.00094614492264,10,3,0,3,1,3.5
7519,121.20303121338108,31.29206553238246,2.23935127258301,9.454552492e-05,10,3,0,3,1,3.5
7520,121.20302771434919,31.29206909382417,2.23976850509644,-0.00033137743594,10,3,0,3,1,3.5
7521,121.20302404950422,31.29207283030522,2.23923945426941,0.00233036628924,10,3,0,3,1,3.5
7522,121.20302044219169,31.29207658351533,2.2390284538269,0.00133334333077,10,3,0,3,1,3.5
7523,121.20301664275651,31.29208047818779,2.23810529708862,-2.28346539e-06,10,3,0,3,1,3.5
7524,121.20301310907007,31.29208411315443,2.23852443695068,0.00112679821905,10,3,0,3,1,3.5
7525,121.20300964477163,31.29208771363449,2.23809838294983,0.00017116904201,10,3,0,3,1,3.5
7526,121.20300593209465,31.29209151104537,2.23964238166809,-0.00042711265269,10,3,0,3,1,3.5
7527,121.20300254919725,31.29209502729118,2.23891139030457,-0.00028702736017,10,3,0,3,1,3.5
7528,121.20299906972649,31.29209856218334,2.23997139930725,-0.00047930059372,10,3,0,3,1,3.5
7529,121.20299535004185,31.29210236943083,2.23946237564087,-0.00086172809824,10,3,0,3,1,3.5
7530,121.20299160962607,31.29210621249319,2.24064350128174,0.0001347020152,10,3,0,3,1,3.5
