Id Lon Lat heading curvature mode SpeedMode EventMode LaneNum LaneSeq LaneWidth
1210,121.2028168362563,31.29296933332229,-0.16869060695171,-0.62082707881927,10,3,0,2,1,3.5
1211,121.20282208003822,31.29296861762798,-0.17079761624336,-0.00338908052072,10,3,0,2,1,3.5
1212,121.20282727945451,31.29296796813603,-0.17002160847187,0.0028616131749,10,3,0,2,1,3.5
1213,121.2028327980162,31.29296724840986,-0.17141461372375,0.00603952957317,10,3,0,2,1,3.5
1214,121.20283812156632,31.29296649430806,-0.17365261912346,0.00599980354309,10,3,0,2,1,3.5
1215,121.2028437480069,31.29296568834159,-0.17602561414242,0.00481094699353,10,3,0,2,1,3.5
1216,121.20284897285578,31.29296489035031,-0.17904061079025,0.0089501477778,10,3,0,2,1,3.5
1217,121.20285415284086,31.29296411008118,-0.18217261135578,0.00551973748952,10,3,0,2,1,3.5
1218,121.20285983336937,31.29296322939011,-0.18577460944653,0.00670033693314,10,3,0,2,1,3.5
1219,121.20286543319727,31.2929623375056,-0.18977661430836,0.00779015850276,10,3,0,2,1,3.5
1220,121.20287091460666,31.29296144639651,-0.19384260475636,0.00666047120467,10,3,0,2,1,3.5
1221,121.20287648485169,31.29296046912852,-0.19940561056137,0.01238650176674,10,3,0,2,1,3.5
1222,121.20288181737226,31.29295949821265,-0.20563361048698,0.01136395614594,10,3,0,2,1,3.5
1223,121.2028875203843,31.29295841497073,-0.2125686109066,0.01323802117258,10,3,0,2,1,3.5
1224,121.20289297080147,31.2929573404917,-0.21949061751366,0.01211582124233,10,3,0,2,1,3.5
1225,121.20289815163076,31.29295628700727,-0.22593660652637,0.0125199733302,10,3,0,2,1,3.5
1226,121.2029033776117,31.29295518077323,-0.23281861841679,0.01265725214034,10,3,0,2,1,3.5
1227,121.20290898042892,31.29295395206378,-0.23981061577797,0.01188539899886,10,3,0,2,1,3.5
1228,121.20291430455109,31.29295276760636,-0.24720060825348,0.01548489741981,10,3,0,2,1,3.5
1229,121.20291967057919,31.29295153480232,-0.25474160909653,0.01322175934911,10,3,0,2,1,3.5
1230,121.20292474736362,31.29295033144353,-0.26147159934044,0.0143025405705,10,3,0,2,1,3.5
1231,121.20293020897832,31.29294900740297,-0.2689346075058,0.01358166802675,10,3,0,2,1,3.5
1232,121.20293572506539,31.29294763725901,-0.27657961845398,0.01270960550755,10,3,0,2,1,3.5
1233,121.20294093930629,31.29294629296773,-0.28343060612679,0.01212222129107,10,3,0,2,1,3.5
1234,121.20294653763769,31.29294482170996,-0.29088860750198,0.01471461821347,10,3,0,2,1,3.5
1235,121.20295216143553,31.29294331446745,-0.29855960607529,0.0137218311429,10,3,0,2,1,3.5
1236,121.20295743687149,31.29294185664483,-0.30528461933136,0.01192057132721,10,3,0,2,1,3.5
1237,121.20296301056165,31.29294026918507,-0.31266060471535,0.01318213250488,10,3,0,2,1,3.5
1238,121.20296852190874,31.29293867317726,-0.32033061981201,0.01329247653484,10,3,0,2,1,3.5
1239,121.20297361754864,31.29293714735858,-0.32756060361862,0.01530316937715,10,3,0,2,1,3.5
1240,121.20297897046089,31.29293548242791,-0.33600360155106,0.01684981957078,10,3,0,2,1,3.5
1241,121.2029845737035,31.2929336522945,-0.34650662541389,0.01916288957,10,3,0,2,1,3.5
1242,121.20298974102298,31.29293190630871,-0.35675862431526,0.01988243311644,10,3,0,2,1,3.5
1243,121.20299482155113,31.29293011912671,-0.36825960874557,0.02192615717649,10,3,0,2,1,3.5
1244,121.20300012812203,31.29292814628532,-0.38157260417938,0.02354800142348,10,3,0,2,1,3.5
1245,121.20300499667226,31.29292626047498,-0.39301961660385,0.02332391962409,10,3,0,2,1,3.5
1246,121.20301019802059,31.29292416367659,-0.40738961100578,0.02744967862964,10,3,0,2,1,3.5
1247,121.20301522165644,31.29292209965984,-0.42088761925697,0.0246062502265,10,3,0,2,1,3.5
1248,121.20302027802852,31.29291994963655,-0.4342146217823,0.02032169885933,10,3,0,2,1,3.5
1249,121.20302511357708,31.29291790863949,-0.44273862242699,0.01626841723919,10,3,0,2,1,3.5
1250,121.20302990843089,31.29291591343156,-0.44855961203575,0.01115384604782,10,3,0,2,1,3.5
1251,121.20303497252031,31.29291444863798,-0.45036160945892,0.00520374486223,3,3,0,2,1,3.5
1252,121.20303973706741,31.29291254757781,-0.45164760947227,0.0050385389477,3,3,0,2,1,3.5
1253,121.20304475863598,31.29291046407148,-0.45564261078835,0.00911419279873,3,3,0,2,1,3.5
1254,121.20304956789961,31.2929084056117,-0.46111160516739,0.0124467452988,3,3,0,2,1,3.5
1255,121.20305440841092,31.29290629996063,-0.46681159734726,0.01215903926641,3,3,0,2,1,3.5
1256,121.20305949211088,31.29290407625935,-0.47311061620712,0.01186443120241,3,3,0,2,1,3.5
1257,121.20306414747238,31.2929019839502,-0.47871962189674,0.01373795885593,3,3,0,2,1,3.5
1258,121.20306907099318,31.2928997497139,-0.48475861549377,0.01085945684463,3,3,0,2,1,3.5
1259,121.20307391175902,31.29289751236098,-0.4911196231842,0.01521083060652,3,3,0,2,1,3.5
1260,121.20307863265836,31.29289528913941,-0.49728059768677,0.00844419188797,3,3,0,2,1,3.5
1261,121.20308379538574,31.29289281987629,-0.50391262769699,0.01195786427706,3,3,0,2,1,3.5
1262,121.20308878895763,31.29289040005262,-0.51029461622238,0.01121784746647,3,3,0,2,1,3.5
1263,121.20309387639074,31.29288790075936,-0.51707661151886,0.01118258479983,3,3,0,2,1,3.5
1264,121.20309869847553,31.29288546845864,-0.52367460727692,0.01332281064242,3,3,0,2,1,3.5
1265,121.20310322552821,31.29288313403734,-0.5304936170578,0.01462429855019,3,3,0,2,1,3.5
1266,121.20310775554577,31.29288076328634,-0.53752261400223,0.01360989548266,3,3,0,2,1,3.5
1267,121.20311261103552,31.29287818533333,-0.54481261968613,0.01304990705103,3,3,0,2,1,3.5
1268,121.20311713551891,31.29287576277096,-0.55173963308334,0.01427564397454,3,3,0,2,1,3.5
1269,121.20312165071127,31.29287331517768,-0.55859559774399,0.01323980372399,3,3,0,2,1,3.5
1270,121.2031261396719,31.29287084088131,-0.56523060798645,0.01358382031322,3,3,0,2,1,3.5
1271,121.20313090246181,31.2928681590515,-0.57246059179306,0.01342570129782,3,3,0,2,1,3.5
1272,121.20313529695068,31.29286563489909,-0.57974261045456,0.01499301102012,3,3,0,2,1,3.5
1273,121.20314055489021,31.29286258213311,-0.58805060386658,0.01274466328323,3,3,0,2,1,3.5
1274,121.20314543234653,31.29285970328641,-0.59604859352112,0.01382412947714,3,3,0,2,1,3.5
1275,121.20315022276677,31.29285682789183,-0.60420364141464,0.01297537330538,3,3,0,2,1,3.5
1276,121.20315464150602,31.29285413904147,-0.61105459928513,0.01125934068114,3,3,0,2,1,3.5
1277,121.20315926305041,31.29285126064808,-0.61850661039352,0.01353647373617,3,3,0,2,1,3.5
1278,121.20316380533534,31.29284841972284,-0.62566363811493,0.01266446616501,3,3,0,2,1,3.5
1279,121.20316854495114,31.29284540493837,-0.63197863101959,0.01107413414866,3,3,0,2,1,3.5
1280,121.20317294852022,31.29284260443788,-0.63767862319946,0.01017062645406,3,3,0,2,1,3.5
1281,121.20317757202582,31.29283963943199,-0.64334958791733,0.00991331227124,3,3,0,2,1,3.5
1282,121.20318184053953,31.29283686499865,-0.64823663234711,0.00983529444784,3,3,0,2,1,3.5
1283,121.20318603452829,31.29283411626261,-0.65300863981247,0.01002110913396,3,3,0,2,1,3.5
1284,121.20319041783598,31.29283121056974,-0.65722662210464,0.00730860978365,3,3,0,2,1,3.5
1285,121.2031949621376,31.29282817506007,-0.66144758462906,0.00749349920079,3,3,0,2,1,3.5
1286,121.20319920014308,31.29282534478449,-0.66501259803772,0.00465427758172,3,3,0,2,1,3.5
1287,121.20320360611571,31.29282239931806,-0.66814261674881,0.00642066262662,3,3,0,2,1,3.5
1288,121.20320793586589,31.29281950921378,-0.67036658525467,0.00586695130914,3,3,0,2,1,3.5
1289,121.20321239016218,31.29281652508137,-0.67265260219574,0.00277991453186,3,3,0,2,1,3.5
1290,121.20321689755042,31.29281348771961,-0.67519164085388,0.00166147679556,3,3,0,2,1,3.5
1291,121.20322124150601,31.29281057017553,-0.67648261785507,0.00186733040027,3,3,0,2,1,3.5
1292,121.20322546222864,31.29280772012979,-0.67814964056015,0.00097582582384,3,3,0,2,1,3.5
1293,121.20322966352991,31.29280483077522,-0.67975461483002,-0.00183049356565,3,3,0,2,1,3.5
1294,121.2032322248965,31.29280284273579,-0.6813086271286,-0.24659678339958,3,3,3,2,1,3.5
1295,121.20323629779655,31.29279989007788,-0.68685859441757,0.01446795742959,3,3,0,2,1,3.5
1296,121.20324052918225,31.29279684003571,-0.69384360313416,0.01659117080271,3,3,0,2,1,3.5
1297,121.20324485536419,31.29279371140398,-0.70142263174057,0.01647633500397,3,3,0,2,1,3.5
1298,121.20324888984703,31.29279073991641,-0.70845460891724,0.01302755624056,3,3,0,2,1,3.5
1299,121.2032532268022,31.29278752494238,-0.71603459119797,0.01117688138038,3,3,0,2,1,3.5
1300,121.2032573088302,31.29278441451349,-0.72382259368896,0.01541423611343,3,3,0,2,1,3.5
1301,121.20326152637033,31.29278119874211,-0.73101460933685,0.01449667010456,3,3,0,2,1,3.5
1302,121.20326582224736,31.29277789576456,-0.73824661970139,0.01316064596176,3,3,0,2,1,3.5
1303,121.20327013523126,31.29277454801442,-0.74473363161087,0.01195733621716,3,3,0,2,1,3.5
1304,121.20327437680858,31.29277112605176,-0.75204062461853,0.01082440745085,3,3,0,2,1,3.5
1305,121.20327851971236,31.29276770662445,-0.75832462310791,0.01208974793553,3,3,0,2,1,3.5
1306,121.20328251613392,31.29276438572045,-0.76467961072922,0.01134873833507,3,3,0,2,1,3.5
1307,121.20328661092483,31.29276093396532,-0.77090561389923,0.0103888483718,3,3,0,2,1,3.5
1308,121.20329056583603,31.29275762657863,-0.77631163597107,0.00976570881903,3,3,0,2,1,3.5
1309,121.20329434696224,31.29275439890725,-0.78182363510132,0.00934588629752,3,3,0,2,1,3.5
1310,121.20329818118915,31.29275103467848,-0.78718459606171,0.01015702541918,3,3,0,2,1,3.5
1311,121.20330230106386,31.29274736039306,-0.79384362697601,0.01228650007397,3,3,0,2,1,3.5
1312,121.20330619029112,31.2927438846034,-0.79946959018707,0.00915306806564,3,3,0,2,1,3.5
1313,121.20331007865744,31.29274041343315,-0.80481761693954,0.0109669836238,3,3,0,2,1,3.5
1314,121.2033137125746,31.29273711231805,-0.80994659662247,0.00970919337124,3,3,0,2,1,3.5
1315,121.20331763378955,31.29273354761188,-0.81560158729553,0.01076301466674,3,3,0,2,1,3.5
1316,121.2033215743384,31.29272990192767,-0.82139563560486,0.00980285182595,3,3,0,2,1,3.5
1317,121.2033258405728,31.29272593884619,-0.82738661766052,0.0111643280834,3,3,0,2,1,3.5
1318,121.20332985196838,31.29272217352581,-0.83307260274887,0.01009673252702,3,3,0,2,1,3.5
1319,121.20333388296757,31.29271835289285,-0.83818858861923,0.00921876262873,3,3,0,2,1,3.5
1320,121.20333767821111,31.29271476654178,-0.84245258569717,0.00755157833919,3,3,0,2,1,3.5
1321,121.20334179396914,31.29271088139126,-0.84620463848114,0.00605122651905,3,3,0,2,1,3.5
1322,121.20334535767894,31.29270751725408,-0.84839761257172,0.00455010961741,3,3,0,2,1,3.5
1323,121.20334894613381,31.29270411495576,-0.85064560174942,0.00407831417397,3,3,0,2,1,3.5
1324,121.20335284455022,31.2927004112662,-0.85331559181213,0.00502189807594,3,3,0,2,1,3.5
1325,121.20335644304394,31.29269695556591,-0.85563963651657,0.00524414889514,3,3,0,2,1,3.5
1326,121.20336006725927,31.2926934637655,-0.85793858766556,0.00385301187634,3,3,0,2,1,3.5
1327,121.20336401465372,31.29268963578284,-0.86067861318588,0.0047144764103,3,3,0,2,1,3.5
1328,121.20336766793875,31.29268606819189,-0.86330258846283,0.00490522384644,3,3,0,2,1,3.5
1329,121.20337133007085,31.29268247533227,-0.86533659696579,0.00320462253876,3,3,0,2,1,3.5
1330,121.20337532987772,31.29267854375316,-0.86774861812592,0.00428480328992,3,3,0,2,1,3.5
1331,121.20337904897673,31.29267488792747,-0.86925059556961,0.00132548168767,3,3,0,2,1,3.5
1332,121.20338277172318,31.2926712073643,-0.87038064002991,0.0013882702915,3,3,0,2,1,3.5
1333,121.2033864997047,31.29266750915121,-0.87153261899948,0.00133537512738,3,3,0,2,1,3.5
1334,121.2033905654772,31.29266352055805,-0.87204962968826,0.00102501560468,3,3,0,2,1,3.5
1335,121.2033943436096,31.29265982561752,-0.87217563390732,0.0003039551375,3,3,0,2,1,3.5
1336,121.20339811741923,31.29265610701761,-0.87252962589264,0.00151094282046,3,3,0,2,1,3.5
1337,121.20340158599711,31.2926526855298,-0.87283563613892,0.00053314358229,3,3,0,2,1,3.5
1338,121.20340539400928,31.29264895501063,-0.87291759252548,-0.00054713280406,3,3,0,2,1,3.5
1339,121.20340920970992,31.29264523103048,-0.87322360277176,0.00018728147552,3,3,0,2,1,3.5
1340,121.20341299345748,31.29264151283956,-0.87348461151123,0.00011477693624,3,3,0,2,1,3.5
1341,121.20341645130313,31.29263811507537,-0.87349563837051,0.00158351112623,3,3,0,2,1,3.5
1342,121.20342021663426,31.29263441499888,-0.87394660711288,0.00092310114997,3,3,0,2,1,3.5
1343,121.20342394514287,31.29263072803306,-0.87420761585236,0.00024936778937,3,3,0,2,1,3.5
1344,121.20342765812461,31.29262704450813,-0.87424558401108,-0.00012272754975,3,3,0,2,1,3.5
1345,121.20343167637559,31.29262306124857,-0.87471860647202,0.00103856797796,3,3,0,2,1,3.5
1346,121.20343535185185,31.29261940298514,-0.87534660100937,0.00095591956051,3,3,0,2,1,3.5
1347,121.20343901144334,31.29261580910851,-0.87510758638382,-0.00093187915627,3,3,0,2,1,3.5
1348,121.20344263374868,31.29261224739128,-0.87559658288956,0.00081786134979,3,3,0,2,1,3.5
1349,121.20344653485213,31.29260842036518,-0.87511360645294,-0.00340832583606,3,3,0,2,1,3.5
1350,121.20345007257673,31.29260489819205,-0.87485963106155,0.00144076987635,3,3,0,2,1,3.5
1351,121.20345357233332,31.29260139704089,-0.87667262554169,0.00249225203879,3,3,0,2,1,3.5
1352,121.2034573329963,31.29259766210069,-0.87730258703232,-0.00053692725487,3,3,0,2,1,3.5
1353,121.20346131852243,31.29259370313193,-0.87839263677597,0.0024960830342,3,3,0,2,1,3.5
1354,121.2034652408748,31.29258978591995,-0.87885862588882,-0.00025514399749,3,3,0,2,1,3.5
1355,121.20346881263515,31.29258619090693,-0.87933361530304,0.00150133843999,3,3,0,2,1,3.5
1356,121.20347260464658,31.29258236854157,-0.879727602005,0.00079566903878,3,3,0,2,1,3.5
1357,121.20347633841911,31.2925786327319,-0.88024258613586,0.0007234721561,3,3,0,2,1,3.5
1358,121.20348023725846,31.29257471143204,-0.88056659698486,0.00057171715889,3,3,0,2,1,3.5
1359,121.20348379841698,31.29257113369564,-0.88072162866592,0.00035576967639,3,3,0,2,1,3.5
1360,121.20348728285997,31.29256762881093,-0.88127863407135,0.00259573967196,3,3,0,2,1,3.5
1361,121.20349089026628,31.29256399315714,-0.88145160675049,-0.00037682248512,3,3,0,2,1,3.5
1362,121.20349458310082,31.29256026456722,-0.88192063570023,-2.648989903e-05,3,3,0,2,1,3.5
1363,121.20349812500487,31.29255669396651,-0.88265264034271,0.00237041711807,3,3,0,2,1,3.5
1364,121.20350168049515,31.29255312341355,-0.88229858875275,-0.00195740186609,3,3,0,2,1,3.5
1365,121.20350516266598,31.29254957581102,-0.88340759277344,0.00141316570807,3,3,0,2,1,3.5
1366,121.2035088967734,31.2925457921035,-0.88368362188339,0.00189995707478,3,3,0,2,1,3.5
1367,121.20351237241354,31.29254224490213,-0.88387262821198,0.00054564897437,3,3,0,2,1,3.5
1368,121.20351585367114,31.29253871538136,-0.88441163301468,-9.686327394e-05,3,3,0,2,1,3.5
1369,121.20351926395466,31.29253521145531,-0.88518959283829,1.956619053e-05,3,3,0,2,1,3.5
1370,121.20352268027125,31.29253178026462,-0.88521462678909,-0.00244914297946,3,3,0,2,1,3.5
1371,121.20352620812388,31.29252838762589,-0.88586062192917,0.00667185802013,10,3,0,2,1,3.5
1372,121.20352971327054,31.29252491345142,-0.88414263725281,-0.0002507926838,10,3,0,2,1,3.5
1373,121.20353320375119,31.29252142974368,-0.88258862495422,-0.00486070849001,10,3,0,2,1,3.5
1374,121.20353676138785,31.29251791338323,-0.88073360919952,-0.00615984015167,10,3,0,2,1,3.5
1375,121.2035402742074,31.29251445762909,-0.87990564107895,-0.00157256808598,10,3,0,2,1,3.5
1376,121.20354378533362,31.29251100548754,-0.87939661741257,-3.990585537e-05,10,3,0,2,1,3.5
1377,121.20354749130567,31.29250734107607,-0.8791846036911,0.00036427698797,10,3,0,2,1,3.5
1378,121.20355099836905,31.29250381938506,-0.87942659854889,-0.00068060163176,10,3,0,2,1,3.5
1379,121.20355454018569,31.2925002341387,-0.880375623703,0.001414326136,10,3,0,2,1,3.5
1380,121.20355819861545,31.29249654856354,-0.88082563877106,0.00124891579617,10,3,0,2,1,3.5
1381,121.20356163445125,31.29249312532561,-0.8805416226387,-0.00134770513978,10,3,0,2,1,3.5
1382,121.20356539762997,31.29248936248015,-0.87974762916565,-0.00129995879252,10,3,0,2,1,3.5
1383,121.20356886034128,31.29248594215096,-0.8781555891037,-0.00015973822156,10,3,0,2,1,3.5
1384,121.20357269002145,31.29248216565144,-0.87673962116241,-0.00205648108386,10,3,0,2,1,3.5
1385,121.20357650281812,31.29247841887132,-0.87550258636475,-0.00075581087731,10,3,0,2,1,3.5
1386,121.203580274577,31.29247473104739,-0.87394958734512,-0.00420516869053,10,3,0,2,1,3.5
1387,121.20358375091986,31.29247133767203,-0.8729196190834,-0.00180476927198,10,3,0,2,1,3.5
1388,121.20358734827802,31.29246783751561,-0.87147462368011,-0.00182867434341,10,3,0,2,1,3.5
1389,121.2035913125743,31.29246401695104,-0.86970961093903,-0.00301501853392,10,3,0,2,1,3.5
1390,121.20359513677748,31.29246032367597,-0.8681076169014,-0.00335733080283,10,3,0,2,1,3.5
1391,121.20359880489723,31.29245679724227,-0.86649560928345,-0.00316745159216,10,3,0,2,1,3.5
1392,121.20360277161032,31.29245299927981,-0.86500561237335,-0.00540087372065,10,3,0,2,1,3.5
1393,121.2036067627828,31.29244917994885,-0.86374062299728,-0.00226965500042,10,3,0,2,1,3.5
1394,121.20361051816266,31.29244558087412,-0.86273658275604,-0.00109202798922,10,3,0,2,1,3.5
1395,121.20361403347057,31.29244220668514,-0.86214262247086,8.357466868e-05,10,3,0,2,1,3.5
1396,121.20361756981359,31.29243882888902,-0.86149859428406,-0.001493684249,10,3,0,2,1,3.5
1397,121.20362111807022,31.29243543313611,-0.86125260591507,0.00026306591462,10,3,0,2,1,3.5
1398,121.20362494199503,31.29243177499954,-0.86059862375259,-0.00072939274833,10,3,0,2,1,3.5
1399,121.20362852967685,31.29242834222778,-0.86001658439636,-0.00147058593575,10,3,0,2,1,3.5
1400,121.2036321195331,31.29242489163943,-0.85989964008331,8.461061952e-05,10,3,0,2,1,3.5
1401,121.20363597101945,31.29242119819008,-0.85927158594131,-0.00338137242943,10,3,0,2,1,3.5
1402,121.20363956147696,31.29241776277435,-0.85918360948563,-0.00070867157774,10,3,0,2,1,3.5
1403,121.20364313507282,31.29241434241748,-0.85925263166428,-0.00065613468178,10,3,0,2,1,3.5
1404,121.20364693179859,31.29241069765564,-0.85944163799286,0.00142266775947,10,3,0,2,1,3.5
1405,121.20365045605068,31.29240732375526,-0.85955959558487,0.0005837228382,10,3,0,2,1,3.5
1406,121.2036544561104,31.29240350334523,-0.85972261428833,0.00222460343502,10,3,0,2,1,3.5
1407,121.20365817452468,31.29239994105098,-0.86009860038757,0.00167421496008,10,3,0,2,1,3.5
1408,121.20366210808996,31.29239617280697,-0.86032658815384,-0.00077737704851,10,3,0,2,1,3.5
1409,121.20366601130726,31.29239242558305,-0.86069363355637,0.00155969127081,10,3,0,2,1,3.5
1410,121.20366963137377,31.29238894482793,-0.8611615896225,0.00204189773649,10,3,0,2,1,3.5
1411,121.20367348412165,31.29238524257512,-0.86166560649872,0.00188251340296,10,3,0,2,1,3.5
1412,121.20367756576374,31.29238130219371,-0.8627216219902,0.0032573917415,10,3,0,2,1,3.5
1413,121.20368139136873,31.29237758788257,-0.86411362886429,0.00272185145877,10,3,0,2,1,3.5
1414,121.20368520957724,31.29237385351865,-0.86611461639404,0.00448346091434,10,3,0,2,1,3.5
1415,121.20368878267931,31.29237034340878,-0.86772161722183,0.00322542432696,10,3,0,2,1,3.5
1416,121.20369256930519,31.29236658058372,-0.86991459131241,0.00425766408443,10,3,0,2,1,3.5
1417,121.20369636234747,31.29236283012662,-0.87199360132217,0.00208250759169,10,3,0,2,1,3.5
1418,121.20369990126645,31.29235929309284,-0.87438863515854,0.00499033508822,10,3,0,2,1,3.5
1419,121.20370364677592,31.29235550519747,-0.8775926232338,0.00420822156593,10,3,0,2,1,3.5
1420,121.20370736943092,31.29235168971074,-0.88097161054611,0.00482737738639,10,3,0,2,1,3.5
1421,121.20371084096347,31.29234810297233,-0.88484859466553,0.00742841511965,10,3,0,2,1,3.5
1422,121.20371451628803,31.29234425127146,-0.88963663578033,0.00775253679603,10,3,0,2,1,3.5
1423,121.20371792570496,31.29234061933023,-0.89473164081573,0.0121356472373,10,3,0,2,1,3.5
1424,121.20372151332217,31.29233671720562,-0.90106558799744,0.01280044298619,10,3,0,2,1,3.5
1425,121.2037250479022,31.29233278704253,-0.90860658884048,0.01350850239396,10,3,0,2,1,3.5
1426,121.20372832020419,31.2923290803287,-0.9165825843811,0.01616267301142,10,3,0,2,1,3.5
1427,121.20373172958337,31.29232509874211,-0.92593061923981,0.01732889562845,10,3,0,2,1,3.5
