Id Lon Lat heading curvature mode SpeedMode EventMode LaneNum LaneSeq LaneWidth
7531,121.20286896989681,31.29204293027254,-0.86549860239029,0.06638684123755,10,3,0,2,1,3.5
7532,121.20287239553546,31.2920392973748,-0.86530262231827,-0.0048795659095,10,3,0,2,1,3.5
7533,121.20287611314929,31.29203591885071,-0.85889959335327,-0.01764939911664,10,3,0,2,1,3.5
7534,121.20288003910026,31.29203253579712,-0.8474485874176,-0.02917785011232,10,3,0,2,1,3.5
7535,121.20288399726293,31.29202932779873,-0.83130663633347,-0.03144296258688,10,3,0,2,1,3.5
7536,121.20288795152729,31.29202627366864,-0.81454658508301,-0.03202641010284,10,3,0,2,1,3.5
7537,121.20289212197915,31.2920232373944,-0.7961305975914,-0.03479688242078,10,3,0,2,1,3.5
7538,121.20289649456186,31.29202015521623,-0.77618062496185,-0.03654843941331,10,3,0,2,1,3.5
7539,121.20290089038845,31.29201714132315,-0.7569305896759,-0.03647652640939,10,3,0,2,1,3.5
7540,121.20290552179412,31.29201414224145,-0.73692959547043,-0.0318629257381,10,3,0,2,1,3.5
7541,121.20291006240798,31.29201139380443,-0.71772259473801,-0.03705988824368,10,3,0,2,1,3.5
7542,121.20291462823428,31.29200872911656,-0.69973063468933,-0.02810683660209,10,3,0,2,1,3.5
7543,121.20291931161819,31.29200607686105,-0.68377161026001,-0.02576309256256,10,3,0,2,1,3.5
7544,121.20292428217323,31.29200332180114,-0.67069661617279,-0.02625175751746,10,3,0,2,1,3.5
7545,121.20292885346898,31.29200068540642,-0.66240060329437,-0.01574567519128,10,3,0,2,1,3.5
7546,121.20293353930646,31.29199803859379,-0.65474760532379,-0.00610909843817,10,3,0,2,1,3.5
7547,121.20293817622836,31.291995247623,-0.6526466012001,-0.00918599683791,10,3,0,2,1,3.5
7548,121.20294277246863,31.29199244794331,-0.65331560373306,-0.00518292700872,10,3,0,2,1,3.5
7549,121.20294738294639,31.29198968341515,-0.65290862321854,0.00451225461438,10,3,0,2,1,3.5
7550,121.20295184663233,31.29198695500287,-0.65359562635422,-0.00093560293317,10,3,0,2,1,3.5
7551,121.20295621678129,31.29198430998295,-0.6534526348114,0.00110281514935,10,3,0,2,1,3.5
7552,121.20296064067973,31.29198167602381,-0.65377759933472,0.00059181480901,10,3,0,2,1,3.5
7553,121.20296494824738,31.29197890240404,-0.65956461429596,0.02439557015896,10,3,0,2,2,3.5
7554,121.20296909304479,31.29197593435754,-0.67162764072418,0.02220810391009,10,3,0,2,2,3.5
7555,121.20297315948909,31.29197293662704,-0.68502759933472,0.0253278799355,10,3,0,2,2,3.5
7556,121.20297731199551,31.29196979789766,-0.69922560453415,0.03117158450186,10,3,0,2,2,3.5
7557,121.20298133297585,31.29196665025106,-0.71261858940125,0.02693460509181,10,3,0,2,2,3.5
7558,121.20298532830726,31.29196346479134,-0.72646361589432,0.02751194126904,10,3,0,2,2,3.5
7559,121.20298927087038,31.29196022299973,-0.74077063798904,0.03062447719276,10,3,0,2,2,3.5
7560,121.20299307417253,31.2919569885922,-0.75420963764191,0.02816732414067,10,3,0,2,2,3.5
7561,121.20299692857355,31.29195358081816,-0.76909762620926,0.03099305927753,10,3,0,2,2,3.5
7562,121.20300078877884,31.29194999654849,-0.7864226102829,0.03435602411628,10,3,0,2,2,3.5
7563,121.20300434865642,31.29194652779,-0.80360662937164,0.03484784811735,10,3,0,2,2,3.5
7564,121.20300790188958,31.29194295460049,-0.82112258672714,0.03078137524426,10,3,0,2,2,3.5
7565,121.20301127814396,31.29193937630442,-0.83864659070969,0.03300169110298,10,3,0,2,2,3.5
7566,121.20301468735104,31.29193571468826,-0.85607159137726,0.03403078764677,10,3,0,2,2,3.5
7567,121.20301794273108,31.29193208418712,-0.872234582901,0.03230461850762,10,3,0,2,2,3.5
7568,121.20302123768617,31.29192831080251,-0.88871961832047,0.03160996362567,10,3,0,2,2,3.5
7569,121.20302437191627,31.29192459795317,-0.90381860733032,0.0325867459178,10,3,0,2,2,3.5
7570,121.20302754688787,31.29192078790988,-0.91917961835861,0.03319662436843,10,3,0,2,2,3.5
7571,121.20303052308024,31.2919170534586,-0.93393659591675,0.02757997438312,10,3,0,2,2,3.5
7572,121.20303360709825,31.29191339873353,-0.93908458948135,-0.00532989948988,3,3,0,2,2,3.5
7573,121.20303717095865,31.29190982384252,-0.92643159627914,-0.02942868508399,3,3,0,2,2,3.5
7574,121.20304070354797,31.29190637964116,-0.91384363174438,-0.01904601976275,3,3,0,2,2,3.5
7575,121.20304437425523,31.29190269842029,-0.90629762411118,-0.00937884859741,3,3,0,2,2,3.5
7576,121.20304800356834,31.29189897405907,-0.90284162759781,-0.00270151067525,3,3,0,2,2,3.5
7577,121.20305146917332,31.29189536057797,-0.90254962444305,0.00103306758683,3,3,0,2,2,3.5
7578,121.20305500703668,31.29189161993705,-0.90384560823441,0.00054204830667,3,3,0,2,2,3.5
7579,121.20305858309354,31.29188783546653,-0.90403664112091,-0.00038775222492,3,3,0,2,2,3.5
7580,121.20306209094707,31.29188411781793,-0.90444761514664,-0.00050909997663,3,3,0,2,2,3.5
7581,121.20306556336244,31.291880540327,-0.90393459796906,-0.0006347973831,3,3,0,2,2,3.5
7582,121.20306911680068,31.29187686448375,-0.90278363227844,-0.00115448492579,3,3,0,2,2,3.5
7583,121.20307256629007,31.29187332298942,-0.90149760246277,-0.00199311762117,3,3,0,2,2,3.5
7584,121.20307626822247,31.29186952527086,-0.90034061670303,-0.00227391929366,3,3,0,2,2,3.5
7585,121.20307978345836,31.29186595432231,-0.89943963289261,-0.00280395522714,3,3,0,2,2,3.5
7586,121.20308347227741,31.29186220259944,-0.89807063341141,-0.00124204054009,3,3,0,2,2,3.5
7587,121.20308689252441,31.29185866532906,-0.89868259429932,0.00363729358651,3,3,0,2,2,3.5
7588,121.20309050381157,31.29185494550043,-0.89877462387085,0.00099742983002,3,3,0,2,2,3.5
7589,121.20309408027772,31.29185126311919,-0.89996659755707,0.00381423789077,3,3,0,2,2,3.5
7590,121.2030978284377,31.29184743839222,-0.90043962001801,0.00113193225116,3,3,0,2,2,3.5
7591,121.20310128215466,31.29184383849575,-0.90136861801147,0.00037279221579,3,3,0,2,2,3.5
7592,121.2031048015995,31.29184019658668,-0.90170258283615,0.00315459142439,3,3,0,2,2,3.5
7593,121.20310827303081,31.29183659735465,-0.9029825925827,0.00489601586014,3,3,0,2,2,3.5
7594,121.20311162757217,31.29183311741527,-0.90407061576843,0.00150474102702,3,3,0,2,2,3.5
7595,121.20311509862223,31.29182954374505,-0.90451663732529,-0.0019596258644,3,3,0,2,2,3.5
7596,121.20311775554141,31.29182673347159,-0.90544360876083,0.00165676744655,3,3,3,2,2,3.5
7597,121.20312124843268,31.29182310204258,-0.90609759092331,-0.00054366223048,3,3,0,2,2,3.5
7598,121.2031246480761,31.29181945039194,-0.90740561485291,-0.00161236338317,3,3,0,2,2,3.5
7599,121.20312802239057,31.29181594756798,-0.9077005982399,0.00077903724741,3,3,0,2,2,3.5
7600,121.20313141211092,31.29181246020198,-0.90625059604645,-0.01092273276299,3,3,0,2,2,3.5
7601,121.20313511759477,31.29180885133085,-0.89904862642288,-0.02176185324788,3,3,0,2,2,3.5
7602,121.20313883994227,31.29180553606656,-0.88273859024048,-0.04352802410722,3,3,0,2,2,3.5
7603,121.20314286746375,31.29180235018605,-0.85842460393906,-0.05732798948884,3,3,0,2,2,3.5
7604,121.20314721156348,31.29179938150368,-0.82335859537125,-0.07016111910343,3,3,0,2,2,3.5
7605,121.20315179754262,31.29179663007365,-0.78199464082718,-0.08369978517294,3,3,0,2,2,3.5
7606,121.20315654544909,31.29179411812618,-0.73641258478165,-0.08654173463583,3,3,0,2,2,3.5
7607,121.20316120255511,31.29179188890647,-0.69343262910843,-0.08799663186073,3,3,0,2,2,3.5
7608,121.20316632149591,31.29178968240256,-0.64770859479904,-0.08465674519539,3,3,0,2,2,3.5
7609,121.20317142116794,31.29178775251122,-0.60130763053894,-0.08467400074005,3,3,0,2,2,3.5
7610,121.20317640465743,31.29178607881444,-0.55868762731552,-0.08504612743855,3,3,0,2,2,3.5
7611,121.20318174751311,31.29178449969183,-0.51396560668945,-0.08145003765821,3,3,0,2,2,3.5
7612,121.20318695955986,31.2917831461242,-0.47120159864426,-0.08230160921812,3,3,0,2,2,3.5
7613,121.20319246260142,31.29178200145316,-0.42652961611748,-0.08270622044802,3,3,0,2,2,3.5
7614,121.20319772512191,31.29178108929577,-0.38586062192917,-0.07648523151875,3,3,0,2,2,3.5
7615,121.20320319015033,31.2917802275665,-0.34773662686348,-0.07117653638124,3,3,0,2,2,3.5
7616,121.20320865191476,31.29177958885343,-0.30849561095238,-0.07109580934048,3,3,0,2,2,3.5
7617,121.20321425323361,31.29177912604498,-0.26980060338974,-0.07375580072403,3,3,0,2,2,3.5
7618,121.20321970765217,31.29177887515089,-0.23012360930443,-0.08078592270613,3,3,0,2,2,3.5
7619,121.20322517662993,31.2917787332055,-0.19005161523819,-0.07408326864243,3,3,0,2,2,3.5
7620,121.20323069607399,31.29177872607349,-0.15215161442757,-0.07491975277662,3,3,0,2,2,3.5
7621,121.20323595625207,31.29177877206636,-0.12172961235046,-0.05028324574232,3,3,0,2,2,3.5
7622,121.20324129557375,31.29177894964326,-0.09356861561537,-0.03746797516942,3,3,0,2,2,3.5
7623,121.20324659323707,31.29177904619799,-0.07300961017609,-0.03705666586757,3,3,0,2,1,3.5
7624,121.2032520109344,31.29177904957471,-0.05980861186981,-0.02117854356766,3,3,0,2,1,3.5
7625,121.2032573801613,31.29177892001199,-0.05469561368227,-0.00409072777256,3,3,0,2,1,3.5
7626,121.20326276376697,31.29177876414253,-0.05543361231685,-0.00285996729508,3,3,0,2,1,3.5
7627,121.20326831078835,31.29177859652524,-0.05663361027837,0.00322072790004,3,3,0,2,1,3.5
7628,121.20327387683919,31.29177836837455,-0.0580406114459,0.00271881464869,3,3,0,2,1,3.5
7629,121.20327925409866,31.29177814326773,-0.05991161242127,0.00244036712684,3,3,0,2,1,3.5
7630,121.20328465071321,31.29177797678445,-0.06157761067152,0.0020237560384,3,3,0,2,1,3.5
7631,121.20328998676051,31.29177776995898,-0.06287360936403,0.00223975721747,3,3,0,2,1,3.5
7632,121.20329576623664,31.29177754835311,-0.06400061398745,0.00439022202045,3,3,0,2,1,3.5
7633,121.2033014436395,31.29177732444636,-0.06498361378908,0.00145604764111,3,3,0,2,1,3.5
7634,121.20330699207436,31.2917771008736,-0.06621461361647,0.00073152285768,3,3,0,2,1,3.5
7635,121.20331238715922,31.29177691746548,-0.06740260869265,0.00356893287972,3,3,0,2,1,3.5
7636,121.2033181897499,31.29177666430237,-0.06981961429119,0.00454773614183,3,3,0,2,1,3.5
7637,121.20332381281223,31.2917764098702,-0.07098761200905,0.00260900426656,3,3,0,2,1,3.5
7638,121.20332920002474,31.29177613196997,-0.07293161004782,0.00382905569859,3,3,0,2,1,3.5
7639,121.20333494858939,31.29177580668095,-0.07539561390877,0.00393862277269,3,3,0,2,1,3.5
7640,121.20334051761402,31.29177549983441,-0.07607561349869,0.0024181115441,3,3,0,2,1,3.5
7641,121.2033461758838,31.2917751688593,-0.0780346095562,0.001958809793,3,3,0,2,1,3.5
7642,121.203351578788,31.29177483812456,-0.07942160964012,0.00338978180662,3,3,0,2,1,3.5
7643,121.20335731001744,31.2917744617139,-0.08099061250687,0.00083513656864,3,3,0,2,1,3.5
7644,121.2033627008472,31.29177414857074,-0.08103761076927,-0.0012053551618,3,3,0,2,1,3.5
7645,121.20336835063223,31.29177388084918,-0.0797116085887,-0.00262730335817,3,3,0,2,1,3.5
7646,121.2033739481773,31.29177366670887,-0.07535961270332,-0.01138874422759,3,3,0,2,1,3.5
7647,121.2033792093926,31.29177352271724,-0.06897161155939,-0.01406316645443,3,3,0,2,1,3.5
7648,121.20338474466627,31.29177350244223,-0.05921061336994,-0.02070972323418,3,3,0,2,1,3.5
7649,121.20339057200808,31.29177363884605,-0.04511861130595,-0.03004772216082,3,3,0,2,1,3.5
7650,121.20339605183888,31.291773894524,-0.02894061245024,-0.03221879154444,3,3,0,2,1,3.5
7651,121.20340144936259,31.29177427289034,-0.01212861202657,-0.02954216860235,3,3,0,2,1,3.5
7652,121.20340685319428,31.29177471521767,0.00411038799211,-0.03732977062464,3,3,0,2,1,3.5
7653,121.2034124828875,31.29177530410678,0.02290738746524,-0.0415269844234,3,3,0,2,1,3.5
7654,121.20341792595984,31.29177602119729,0.04479038715363,-0.03764938190579,3,3,0,2,1,3.5
7655,121.20342329218461,31.29177682516734,0.06812738627195,-0.04533284902573,10,3,0,2,1,3.5
7656,121.20342842938801,31.29177779197218,0.09183238446712,-0.05648711323738,10,3,0,2,1,3.5
7657,121.20343363567491,31.29177887535048,0.11784638464451,-0.063377417624,10,3,0,2,1,3.5
7658,121.20343868724515,31.29178030483848,0.15653239190578,-0.0857325270772,10,3,0,2,1,3.5
7659,121.20344377084025,31.29178215237576,0.20478339493275,-0.09780734032393,10,3,0,2,1,3.5
7660,121.20344848737498,31.291784177888,0.25315037369728,-0.09739451855421,10,3,0,2,1,3.5
7661,121.20345319635425,31.29178644242855,0.30332937836647,-0.10097802430391,10,3,0,2,1,3.5
7662,121.2034577217161,31.29178887956528,0.35344138741493,-0.09840481728315,10,3,0,2,1,3.5
7663,121.2034622564881,31.29179152607229,0.40257439017296,-0.09191699326038,10,3,0,2,1,3.5
7664,121.20346663889546,31.29179426822684,0.44752138853073,-0.08333934098482,10,3,0,2,1,3.5
7665,121.20347085387327,31.29179707484336,0.48862940073013,-0.08135970681906,10,3,0,2,1,3.5
7666,121.20347491733686,31.29179993710266,0.52656435966492,-0.07189090549946,10,3,0,2,1,3.5
7667,121.20347898394057,31.29180284761445,0.55957835912704,-0.06080476939678,10,3,0,2,1,3.5
7668,121.20348322502814,31.29180588706036,0.58738040924072,-0.04730843752623,10,3,0,2,1,3.5
7669,121.20348769788318,31.29180898079291,0.60902136564255,-0.03552667424083,10,3,0,2,1,3.5
7670,121.20349184043862,31.29181195058115,0.62671738862991,-0.03683378174901,10,3,0,2,1,3.5
7671,121.20349606600304,31.29181510107274,0.64539939165115,-0.03081606701016,10,3,0,2,1,3.5
7672,121.20349998042143,31.29181813296858,0.66271036863327,-0.03404004126787,10,3,0,2,1,3.5
7673,121.20350396384353,31.29182127082705,0.67873239517212,-0.02710725180805,10,3,0,2,1,3.5
7674,121.20350802477662,31.29182450289717,0.69008040428162,-0.01354929897934,10,3,0,2,1,3.5
7675,121.2035119457649,31.29182752673375,0.69420236349106,-0.00535096973181,10,3,0,2,1,3.5
7676,121.2035160363938,31.29183055268082,0.6938653588295,0.00166153686587,10,3,0,2,1,3.5
7677,121.20352011442763,31.2918335452156,0.69338339567184,0.00221663969569,10,3,0,2,1,3.5
7678,121.20352434109992,31.2918366262809,0.69154739379883,0.00064319075318,10,3,0,2,1,3.5
7679,121.2035284638154,31.2918396537555,0.69007241725922,0.00256743701175,10,3,0,2,1,3.5
7680,121.2035325327514,31.29184263201637,0.68848937749863,-0.00108426378574,10,3,0,2,1,3.5
7681,121.20353661762482,31.29184559373643,0.68686836957932,0.00479140877724,10,3,0,2,1,3.5
