Id Lon Lat heading curvature mode SpeedMode EventMode OppositeSideMode LaneNum LaneSeq LaneWidth
0 120.77501655114187 31.58912480971913 2.31391739845276 0.07290643453598 10 5 0 0 3 1 3.50000000000000
1 120.77501288675425 31.58912818076945 2.31513547897339 0.00291680288501 10 5 0 0 3 1 3.50000000000000
2 120.77500913456768 31.58913156048868 2.31518030166626 0.00073991058161 10 5 0 0 3 1 3.50000000000000
3 120.77500548518886 31.58913489267664 2.31393337249756 0.00548614282161 10 5 0 0 3 1 3.50000000000000
4 120.77500173121339 31.58913835437912 2.31095027923584 0.00848006922752 10 5 0 0 3 1 3.50000000000000
5 120.77499811930825 31.58914169525043 2.30819129943848 0.00609150994569 10 5 0 0 3 1 3.50000000000000
6 120.77499450251553 31.58914506240251 2.30529332160950 0.00732286693528 10 5 0 0 3 1 3.50000000000000
7 120.77499068778100 31.58914863516042 2.30233430862427 0.00461246119812 10 5 0 0 3 1 3.50000000000000
8 120.77498688508150 31.58915221762669 2.29918932914734 0.00822432991117 10 5 0 0 3 1 3.50000000000000
9 120.77498302340862 31.58915581643794 2.29545545578003 0.00791153684258 10 5 0 0 3 1 3.50000000000000
10 120.77497922252975 31.58915941629446 2.29187941551208 0.00592044740915 10 5 0 0 3 1 3.50000000000000
11 120.77497548897520 31.58916301441624 2.28819537162781 0.00817264523357 10 5 0 0 3 1 3.50000000000000
12 120.77497181614936 31.58916655013421 2.28461527824402 0.00723231583834 10 5 0 0 3 1 3.50000000000000
13 120.77496818754381 31.58917006427680 2.28132033348083 0.00620817439631 10 5 0 0 3 1 3.50000000000000
14 120.77496465432013 31.58917354959824 2.27754139900208 0.00437259720638 10 5 0 0 3 1 3.50000000000000
15 120.77496087363059 31.58917730251102 2.27409338951111 0.00789689924568 10 5 0 0 3 1 3.50000000000000
16 120.77495719096794 31.58918097008254 2.27131438255310 0.00519943004474 10 5 0 0 3 1 3.50000000000000
17 120.77495363116329 31.58918451844569 2.26824927330017 0.00432164315134 10 5 0 0 3 1 3.50000000000000
18 120.77494983463289 31.58918829638879 2.26615238189697 0.00523279095069 10 5 0 0 3 1 3.50000000000000
19 120.77494617621481 31.58919198424427 2.26330137252808 0.00248098094016 10 5 0 0 3 1 3.50000000000000
20 120.77494264260618 31.58919554207706 2.26127529144287 0.00499029224738 10 5 0 0 3 1 3.50000000000000
21 120.77493886837006 31.58919934810729 2.25905847549438 0.00166798767168 10 5 0 0 3 1 3.50000000000000
22 120.77493540691835 31.58920285649165 2.25653338432312 0.00579733820632 10 5 0 0 3 1 3.50000000000000
23 120.77493170564637 31.58920661947178 2.25498628616333 0.00148354109842 10 5 0 0 3 1 3.50000000000000
24 120.77492813272309 31.58921024541647 2.25298428535461 0.00136853847653 10 5 0 0 3 1 3.50000000000000
25 120.77492472010186 31.58921372014153 2.25112128257751 0.00318367942236 10 5 0 0 3 1 3.50000000000000
26 120.77492103251150 31.58921746619830 2.24966645240784 -0.00002170749758 10 5 0 0 3 1 3.50000000000000
27 120.77491733398730 31.58922127675363 2.24849033355713 0.00454526860267 10 5 0 0 3 1 3.50000000000000
28 120.77491383129792 31.58922485622434 2.24813842773438 0.00118524197023 10 5 0 0 3 1 3.50000000000000
29 120.77491015904194 31.58922857135394 2.24706149101257 -0.00028345931787 10 5 0 0 3 1 3.50000000000000
30 120.77490651744566 31.58923227853599 2.24663448333740 0.00180813984480 10 5 0 0 3 1 3.50000000000000
31 120.77490310003313 31.58923574184505 2.24647545814514 -0.00134464481380 10 5 0 0 3 1 3.50000000000000
32 120.77489951514247 31.58923936837832 2.24619626998901 0.00262217759155 10 5 0 0 3 1 3.50000000000000
33 120.77489577774740 31.58924314870108 2.24697136878967 -0.00188157416414 10 5 0 0 3 1 3.50000000000000
34 120.77489225936908 31.58924669690940 2.24735832214355 -0.00143894774374 10 5 0 0 3 1 3.50000000000000
35 120.77488874720218 31.58925023072345 2.24835133552551 0.00028537234175 10 5 0 0 3 1 3.50000000000000
36 120.77488502661814 31.58925394585247 2.24950647354126 -0.00254667550325 10 5 0 0 3 1 3.50000000000000
37 120.77488151410090 31.58925745003473 2.25040650367737 -0.00208593206480 10 5 0 0 3 1 3.50000000000000
38 120.77487784756121 31.58926112472652 2.25136828422546 0.00208171247505 10 5 0 0 3 1 3.50000000000000
39 120.77487434947730 31.58926458805449 2.25270628929138 -0.00452722376212 10 5 0 0 3 1 3.50000000000000
40 120.77487068171041 31.58926823299587 2.25357937812805 -0.00062827224610 10 5 0 0 3 1 3.50000000000000
41 120.77486722175311 31.58927167294155 2.25471138954163 -0.00072035467019 10 5 0 0 3 1 3.50000000000000
42 120.77486378965979 31.58927509856734 2.25552034378052 -0.00245976308361 10 5 0 0 3 1 3.50000000000000
43 120.77486018563324 31.58927869976559 2.25625228881836 -0.00046343353461 10 5 0 0 3 1 3.50000000000000
44 120.77485639151163 31.58928247601612 2.25690937042236 -0.00069781648926 10 5 0 0 3 1 3.50000000000000
45 120.77485280162479 31.58928605486773 2.25720143318176 -0.00338375102729 10 5 0 0 3 1 3.50000000000000
46 120.77484901161444 31.58928980238962 2.25787448883057 -0.00187866296619 10 5 0 0 3 1 3.50000000000000
47 120.77484505849716 31.58929371624862 2.25858545303345 0.00094619352603 10 5 0 0 3 1 3.50000000000000
48 120.77484129773005 31.58929743384736 2.25934839248657 -0.00337663665414 10 5 0 0 3 1 3.50000000000000
49 120.77483737392139 31.58930133216918 2.26051545143127 0.00036936660763 10 5 0 0 3 1 3.50000000000000
50 120.77483362011141 31.58930502302539 2.26153135299683 -0.00187469995581 10 5 0 0 3 1 3.50000000000000
51 120.77482987867816 31.58930870267341 2.26229143142700 -0.00405392749235 10 5 0 0 3 1 3.50000000000000
52 120.77482634237809 31.58931218505542 2.26336336135864 -0.00302738323808 10 5 0 0 3 1 3.50000000000000
53 120.77482263561819 31.58931581097227 2.26418733596802 -0.00145358673763 10 5 0 0 3 1 3.50000000000000
54 120.77481915680887 31.58931920798931 2.26479935646057 -0.00136866501998 10 5 0 0 3 1 3.50000000000000
55 120.77481555812111 31.58932268647037 2.26598429679871 -0.00213460577652 10 5 0 0 3 1 3.50000000000000
56 120.77481181807249 31.58932631099989 2.26679444313049 -0.00090372998966 10 5 0 0 3 1 3.50000000000000
57 120.77480826024930 31.58932977962665 2.26722240447998 -0.00143981270958 10 5 0 0 3 1 3.50000000000000
58 120.77480458511207 31.58933337333850 2.26825428009033 -0.00156407814939 10 5 0 0 3 1 3.50000000000000
59 120.77480077577000 31.58933709450183 2.26872038841248 -0.00108383945189 10 5 0 0 3 1 3.50000000000000
60 120.77479718655272 31.58934062197686 2.26845932006836 0.00162869936321 10 5 0 0 3 1 3.50000000000000
61 120.77479330450402 31.58934442366747 2.26878237724304 0.00137181824539 10 5 0 0 3 1 3.50000000000000
62 120.77478965661571 31.58934798068533 2.26848745346069 0.00243823858909 10 5 0 0 3 1 3.50000000000000
63 120.77478593562147 31.58935165949628 2.26721549034119 0.00093158264644 10 5 0 0 3 1 3.50000000000000
64 120.77478248674383 31.58935513299985 2.26574540138245 0.00169449474197 10 5 0 0 3 1 3.50000000000000
65 120.77477901016250 31.58935862984366 2.26415634155273 0.00342841842212 10 5 0 0 3 1 3.50000000000000
66 120.77477560083037 31.58936209750101 2.26221442222595 0.00348166306503 10 5 0 0 3 1 3.50000000000000
67 120.77477213189205 31.58936560232345 2.26022934913635 0.00629484839737 10 5 0 0 3 1 3.50000000000000
68 120.77476860803583 31.58936915838835 2.25892639160156 0.00193137268070 10 5 0 0 3 1 3.50000000000000
69 120.77476509003233 31.58937271138009 2.25739741325378 0.00053529592697 10 5 0 0 3 1 3.50000000000000
70 120.77476158404887 31.58937625991042 2.25633049011230 0.00240570725873 10 5 0 0 3 1 3.50000000000000
71 120.77475814890801 31.58937972160084 2.25543045997620 0.01605069078505 10 5 0 0 3 1 3.50000000000000
72 120.77475487549567 31.58938326268385 2.25400137901306 0.00468202121556 10 5 0 2 3 1 3.50000000000000
73 120.77475144593191 31.58938671527695 2.25344133377075 -0.00347078614868 10 5 0 2 3 1 3.50000000000000
74 120.77474791883587 31.58939030822304 2.25267338752747 -0.00097070436459 10 5 0 2 3 1 3.50000000000000
75 120.77474445921071 31.58939377151017 2.25219941139221 -0.00318938889541 10 5 0 2 3 1 3.50000000000000
76 120.77474087519002 31.58939742761111 2.25158548355103 0.00109138328116 10 5 0 2 3 1 3.50000000000000
77 120.77473727868536 31.58940103885865 2.25135350227356 -0.00202940404415 10 5 0 2 3 1 3.50000000000000
78 120.77473373342694 31.58940464604042 2.25103831291199 -0.00296837021597 10 5 0 2 3 1 3.50000000000000
79 120.77473003508403 31.58940836948736 2.25053739547729 0.00031736318488 10 5 0 2 3 1 3.50000000000000
80 120.77472654789325 31.58941188276907 2.25006842613220 0.00119488919154 10 5 0 2 3 1 3.50000000000000
81 120.77472300028224 31.58941537067724 2.24997639656067 0.00181859440636 10 5 0 2 3 1 3.50000000000000
82 120.77471948971476 31.58941887614593 2.24969244003296 -0.00007367754006 10 5 0 2 3 1 3.50000000000000
83 120.77471602515236 31.58942233074485 2.24946832656860 0.00023407746630 10 5 0 2 3 1 3.50000000000000
84 120.77471226742956 31.58942611443421 2.24922132492065 0.00098552566487 10 5 0 2 3 1 3.50000000000000
85 120.77470856133600 31.58942983052696 2.24908947944641 0.00035042635864 10 5 0 2 3 1 3.50000000000000
86 120.77470496517280 31.58943346278377 2.24887943267822 0.00035581667908 10 5 0 2 3 1 3.50000000000000
87 120.77470107801614 31.58943740863674 2.24843740463257 -0.00039279047633 10 5 0 2 3 1 3.50000000000000
88 120.77469732322827 31.58944124555305 2.24821734428406 0.00144481868483 10 5 0 2 3 1 3.50000000000000
89 120.77469391751686 31.58944472339712 2.24786329269409 -0.00164952024352 10 5 0 2 3 1 3.50000000000000
90 120.77469024365169 31.58944847098782 2.24746537208557 0.00045963918092 10 5 0 2 3 1 3.50000000000000
91 120.77468675162811 31.58945206610990 2.24726438522339 0.00066690141102 10 5 0 2 3 1 3.50000000000000
92 120.77468322011667 31.58945568778533 2.24665427207947 -0.00022614271438 10 5 0 2 3 1 3.50000000000000
93 120.77467943801956 31.58945955537391 2.24627733230591 0.00166072032880 10 5 0 2 3 1 3.50000000000000
94 120.77467586275733 31.58946320906483 2.24600648880005 0.00261163245887 10 5 0 2 3 1 3.50000000000000
95 120.77467207512252 31.58946711016451 2.24578833580017 0.00004921231084 10 5 0 2 3 1 3.50000000000000
96 120.77466848410694 31.58947077616608 2.24513339996338 -0.00015535834245 10 5 0 2 3 1 3.50000000000000
97 120.77466490950975 31.58947444614399 2.24455332756042 0.00280229910277 10 5 0 2 3 1 3.50000000000000
98 120.77466114607394 31.58947835901557 2.24429845809937 -0.00053443788784 10 5 0 2 3 1 3.50000000000000
99 120.77465759417517 31.58948202333123 2.24354243278503 0.00169292557985 10 5 0 2 3 1 3.50000000000000
100 120.77465404526936 31.58948567694412 2.24313735961914 0.00089585804380 10 5 0 2 3 1 3.50000000000000
101 120.77465027933897 31.58948955990733 2.24258446693420 -0.00046262834803 10 5 0 2 3 1 3.50000000000000
102 120.77464672745731 31.58949322675505 2.24238348007202 0.00164436339401 10 5 0 2 3 1 3.50000000000000
103 120.77464297510625 31.58949710527723 2.24158835411072 0.00140802958049 10 5 0 2 3 1 3.50000000000000
104 120.77463944909564 31.58950074086411 2.24117946624756 0.00197653565556 10 5 0 2 3 1 3.50000000000000
105 120.77463592045197 31.58950434270551 2.24095129966736 0.00266449549235 10 5 0 2 3 1 3.50000000000000
106 120.77463220450312 31.58950815157730 2.24052238464355 0.00044938022620 10 5 0 2 3 1 3.50000000000000
107 120.77462870196881 31.58951175258468 2.24028944969177 -0.00105055142194 10 5 0 2 3 1 3.50000000000000
108 120.77462499753771 31.58951558872658 2.24000334739685 0.00168510794174 10 5 0 2 3 1 3.50000000000000
109 120.77462153519248 31.58951917090186 2.23932147026062 0.00027800936368 10 5 0 2 3 1 3.50000000000000
110 120.77461806074088 31.58952274482700 2.23970937728882 -0.00138768309262 10 5 0 2 3 1 3.50000000000000
111 120.77461436131289 31.58952650845358 2.24085450172424 -0.00239623151720 10 5 0 2 3 1 3.50000000000000
112 120.77461089660267 31.58952999836300 2.24152231216431 -0.00113097880967 10 5 0 2 3 1 3.50000000000000
113 120.77460744434447 31.58953343879126 2.24289345741272 -0.00198793387972 10 5 0 2 3 1 3.50000000000000
114 120.77460358946571 31.58953728363953 2.24414634704590 -0.00155382347293 10 5 0 2 3 1 3.50000000000000
115 120.77459996576476 31.58954088113604 2.24524235725403 -0.00116282084491 10 5 0 2 3 1 3.50000000000000
116 120.77459615157463 31.58954466447436 2.24671030044556 -0.00264807627536 10 5 0 2 3 1 3.50000000000000
117 120.77459234486700 31.58954840277996 2.24831247329712 -0.00150699075311 10 5 0 2 3 1 3.50000000000000
118 120.77458878145025 31.58955191199285 2.25020146369934 -0.00484405597672 10 5 0 2 3 1 3.50000000000000
119 120.77458501973884 31.58955562241404 2.25221633911133 -0.00298468256369 10 5 0 2 3 1 3.50000000000000
120 120.77458147788813 31.58955909953661 2.25420427322388 -0.00395542243496 10 5 0 2 3 1 3.50000000000000
121 120.77457774184765 31.58956274789567 2.25573348999023 -0.00261647906154 10 5 0 2 3 1 3.50000000000000
122 120.77457426845480 31.58956618975724 2.25745439529419 -0.00397986173630 10 5 0 2 3 1 3.50000000000000
123 120.77457061798547 31.58956979742810 2.25911045074463 -0.00252936570905 10 5 0 2 3 1 3.50000000000000
124 120.77456697561333 31.58957334749455 2.26075243949890 -0.00214919564314 10 5 0 2 3 1 3.50000000000000
125 120.77456315633233 31.58957708313051 2.26213836669922 -0.00144758028910 10 5 0 2 3 1 3.50000000000000
126 120.77455957217413 31.58958056053563 2.26375341415405 -0.00182382715866 10 5 0 2 3 1 3.50000000000000
127 120.77455581910525 31.58958421353423 2.26486849784851 0.00120442057960 10 5 0 2 3 1 3.50000000000000
128 120.77455229043012 31.58958764784770 2.26551842689514 -0.00237697549164 10 5 0 2 3 1 3.50000000000000
129 120.77454857988910 31.58959124244032 2.26652145385742 -0.00254618609324 10 5 0 2 3 1 3.50000000000000
130 120.77454510012826 31.58959463300304 2.26713228225708 -0.00114037061576 10 5 0 2 3 1 3.50000000000000
131 120.77454161175335 31.58959805848655 2.26752543449402 -0.00271327677183 10 5 0 2 3 1 3.50000000000000
132 120.77453793371657 31.58960164451387 2.26829528808594 -0.00020843953826 10 5 0 2 3 1 3.50000000000000
133 120.77453406275053 31.58960540216674 2.26887631416321 -0.00231327931397 10 5 0 2 3 1 3.50000000000000
134 120.77453056708744 31.58960879204027 2.26945328712463 0.00024752056925 10 5 0 2 3 1 3.50000000000000
135 120.77452688997217 31.58961237037831 2.26963949203491 -0.00151379976887 10 5 0 2 3 1 3.50000000000000
136 120.77452338556796 31.58961576669080 2.26980948448181 0.00174298300408 10 5 0 2 3 1 3.50000000000000
137 120.77451968023286 31.58961936556357 2.27024650573730 0.00139631319325 10 5 0 2 3 1 3.50000000000000
138 120.77451619815005 31.58962277090004 2.27023243904114 -0.00139150535688 10 5 0 2 3 1 3.50000000000000
139 120.77451254096778 31.58962631902349 2.27092242240906 -0.00145483971573 10 5 0 2 3 1 3.50000000000000
140 120.77450874774357 31.58963002804887 2.27107739448547 -0.00198995275423 10 5 0 2 3 1 3.50000000000000
141 120.77450518711441 31.58963349803754 2.27083730697632 -0.00003004392420 10 5 0 2 3 1 3.50000000000000
142 120.77450147554124 31.58963710542422 2.27151727676392 0.00058263540268 10 5 0 2 3 1 3.50000000000000
143 120.77449781950125 31.58964066103142 2.27173638343811 -0.00124868366402 10 5 0 2 3 1 3.50000000000000
144 120.77449403545545 31.58964435301172 2.27156138420105 0.00052440637955 10 5 0 2 3 1 3.50000000000000
145 120.77449045518478 31.58964782915466 2.27242541313171 0.00342475320213 10 5 0 2 3 1 3.50000000000000
146 120.77448681223015 31.58965139107012 2.27266836166382 -0.00280939694494 10 5 0 2 3 1 3.50000000000000
147 120.77448317656679 31.58965492872576 2.27300548553467 -0.00139272527304 10 5 0 2 3 1 3.50000000000000
148 120.77447964790342 31.58965830847853 2.27403736114502 -0.00191206391901 10 5 0 2 3 1 3.50000000000000
149 120.77447605984246 31.58966175931500 2.27450132369995 -0.00187064812053 10 5 0 2 3 1 3.50000000000000
150 120.77447236587642 31.58966530334124 2.27496743202209 0.00026487113792 10 5 0 2 3 1 3.50000000000000
151 120.77446871948936 31.58966876513121 2.27586841583252 -0.00090725388145 10 5 0 2 3 1 3.50000000000000
152 120.77446512157255 31.58967222930446 2.27627635002136 -0.00335880531929 10 5 0 2 3 1 3.50000000000000
153 120.77446150223058 31.58967567889885 2.27670145034790 -0.00240889354609 10 5 0 2 3 1 3.50000000000000
154 120.77445791137059 31.58967909972334 2.27728533744812 0.00082894240040 10 5 0 2 3 1 3.50000000000000
155 120.77445427537519 31.58968252511387 2.27793931961060 -0.00829336233437 10 5 0 2 3 1 3.50000000000000
156 120.77445072721879 31.58968586501471 2.27823543548584 -0.00314215640537 10 5 0 2 3 1 3.50000000000000
157 120.77444711048184 31.58968919468455 2.27753138542175 -0.00834931712598 3 5 0 2 3 1 3.50000000000000
158 120.77444345434529 31.58969261107158 2.27716732025146 -0.00004478431219 3 5 0 2 3 1 3.50000000000000
159 120.77443989429976 31.58969601312468 2.27674627304077 0.00058314244961 3 5 0 2 3 1 3.50000000000000
160 120.77443612897906 31.58969960007615 2.27600646018982 -0.00750961806625 3 5 0 2 3 1 3.50000000000000
161 120.77443253151110 31.58970302807488 2.27552247047424 -0.00071501435013 3 5 0 2 3 1 3.50000000000000
162 120.77442882668728 31.58970659171857 2.27478432655334 0.00010895836022 3 5 0 2 3 1 3.50000000000000
163 120.77442522716807 31.58971005725419 2.27398443222046 0.00325724412687 3 5 0 2 3 1 3.50000000000000
164 120.77442159637684 31.58971354075843 2.27365040779114 -0.00203436077572 3 5 0 2 3 1 3.50000000000000
165 120.77441787567673 31.58971716791845 2.27286648750305 -0.00081441656221 3 5 0 2 3 1 3.50000000000000
166 120.77441434735164 31.58972060796529 2.27143049240112 0.00063837436028 3 5 0 2 3 1 3.50000000000000
167 120.77441082044152 31.58972408514926 2.27010250091553 0.00228931941092 3 5 0 2 3 1 3.50000000000000
168 120.77440729694889 31.58972756548880 2.26884937286377 0.00535412691534 3 5 0 2 3 1 3.50000000000000
169 120.77440379764643 31.58973105832332 2.26740932464600 0.00440063700080 3 5 0 2 3 1 3.50000000000000
170 120.77440032046084 31.58973448654070 2.26603746414185 0.00451377732679 3 5 0 2 3 1 3.50000000000000
171 120.77439654655258 31.58973819418321 2.26520037651062 -0.00255384505726 3 5 0 2 3 1 3.50000000000000
172 120.77439285219914 31.58974181134446 2.26407146453857 0.00137766252737 3 5 0 2 3 1 3.50000000000000
173 120.77438926546067 31.58974531960394 2.26318335533142 0.00231536896899 3 5 0 2 3 1 3.50000000000000
174 120.77438580032771 31.58974872183565 2.26234149932861 0.00351224071346 3 5 0 2 3 1 3.50000000000000
175 120.77438211075484 31.58975238162172 2.26138329505920 0.00365236727521 3 5 0 2 3 1 3.50000000000000
176 120.77437855731839 31.58975590568740 2.26083445549011 -0.00009310252062 3 5 0 2 3 1 3.50000000000000
177 120.77437476263228 31.58975968915356 2.26043939590454 0.00193729088642 3 5 0 2 3 1 3.50000000000000
178 120.77437107173208 31.58976332716311 2.26064133644104 0.00009533292177 3 5 0 2 3 1 3.50000000000000
179 120.77436749047196 31.58976677486733 2.26115846633911 -0.00102839164902 3 5 0 2 3 1 3.50000000000000
180 120.77436386600229 31.58977029388154 2.26177549362183 -0.00204951129854 3 5 0 2 3 1 3.50000000000000
181 120.77436000413417 31.58977406693245 2.26243138313293 -0.00372226280160 3 5 0 2 3 1 3.50000000000000
182 120.77435628058922 31.58977772244527 2.26249527931213 -0.00126318237744 3 5 0 2 3 1 3.50000000000000
183 120.77435266526943 31.58978119984961 2.26316332817078 -0.00098492007237 3 5 0 2 3 1 3.50000000000000
184 120.77434884146618 31.58978490722152 2.26377439498901 -0.00278385519050 3 5 0 2 3 1 3.50000000000000
185 120.77434501112937 31.58978861971700 2.26434350013733 0.00084324460477 3 5 0 2 3 1 3.50000000000000
186 120.77434136808661 31.58979212843128 2.26507139205933 0.00015051157970 3 5 0 2 3 1 3.50000000000000
187 120.77433751262464 31.58979584047031 2.26530647277832 -0.00151579617523 3 5 0 2 3 1 3.50000000000000
188 120.77433371076803 31.58979954489883 2.26517844200134 0.00036946343607 3 5 0 2 3 1 3.50000000000000
189 120.77433014746165 31.58980298540203 2.26555132865906 -0.00038606615271 3 5 0 2 3 1 3.50000000000000
