Id Lon Lat heading curvature mode SpeedMode EventMode OppositeSideMode LaneNum LaneSeq LaneWidth
1 120.77632484098595 31.59366652590786 0.44332540035248 0.04487109184265 10 5 0 0 3 1 3.09999990463257
2 120.77632965209801 31.59366857577433 0.44440838694572 -0.01008236408234 10 5 0 0 3 1 3.09999990463257
3 120.77633436820386 31.59367065503947 0.44542637467384 -0.00011941778939 10 5 0 0 3 1 3.09999990463257
4 120.77633924474821 31.59367284170743 0.44656139612198 -0.00059430586407 10 5 0 0 3 1 3.09999990463257
5 120.77634392302394 31.59367493797515 0.44767940044403 -0.00166143919341 10 5 0 0 3 1 3.09999990463257
6 120.77634881766477 31.59367713196164 0.44881838560104 -0.0052540213801 10 5 0 0 3 1 3.09999990463257
7 120.77635359475987 31.59367928305212 0.44964337348938 -0.00262011168525 10 5 0 0 3 1 3.09999990463257
8 120.77635877098352 31.59368163969838 0.45020237565041 -0.00594714051113 10 5 0 0 3 1 3.09999990463257
9 120.77636369423489 31.59368383429785 0.44968637824059 -0.00250690476969 10 5 0 0 3 1 3.09999990463257
10 120.77636860704642 31.59368596971954 0.44802537560463 0.00292288372293 10 5 0 0 3 1 3.09999990463257
11 120.77637353688706 31.5936880866825 0.44462639093399 0.0081224841997 10 5 0 0 3 1 3.09999990463257
12 120.776378441381 31.5936901211511 0.43907538056374 0.01463084295392 10 5 0 0 3 1 3.09999990463257
13 120.77638329654438 31.59369205384843 0.43180939555168 0.01670702174306 10 5 0 0 3 1 3.09999990463257
14 120.77638855268998 31.59369409346566 0.42258939146996 0.01533505041152 10 5 0 0 3 1 3.09999990463257
15 120.77639377586702 31.59369602110504 0.4124843776226 0.01999381929636 10 5 0 0 3 1 3.09999990463257
16 120.77639892478075 31.59369786360791 0.40156337618828 0.02441594004631 10 5 0 0 3 1 3.09999990463257
17 120.77640399867222 31.59369956598065 0.3889793753624 0.02656651474535 10 5 0 0 3 1 3.09999990463257
18 120.77640895881278 31.5937011478525 0.37567937374115 0.02551039867103 10 5 0 0 3 1 3.09999990463257
19 120.77641429019988 31.59370277319517 0.36150640249252 0.02494167163968 10 5 0 0 3 1 3.09999990463257
20 120.77641970589897 31.59370433649767 0.34605938196182 0.02917346917093 10 5 0 0 3 1 3.09999990463257
21 120.77642490992473 31.59370577676786 0.33183339238167 0.02792372554541 10 5 0 0 3 1 3.09999990463257
22 120.77643040812049 31.5937071911775 0.31572839617729 0.03130201622844 10 5 0 0 3 1 3.09999990463257
23 120.77643561212945 31.59370848631691 0.30044639110565 0.03113151341677 10 5 0 0 3 1 3.09999990463257
24 120.77644107803542 31.59370977743722 0.2851873934269 0.03018652833998 10 5 0 0 3 1 3.09999990463257
25 120.77644626610169 31.59371090217222 0.26983937621117 0.02776119112968 10 5 0 0 3 1 3.09999990463257
26 120.77645171775659 31.5937120269578 0.2541444003582 0.03250391036272 10 5 0 0 3 1 3.09999990463257
27 120.77645688460365 31.59371298420368 0.23854738473892 0.02710088528693 10 5 0 0 3 1 3.09999990463257
28 120.77646230463543 31.59371391838363 0.22217038273811 0.03272441774607 10 5 0 0 3 1 3.09999990463257
29 120.77646798525255 31.59371480231444 0.20460738241673 0.03542349860072 10 5 0 0 3 1 3.09999990463257
30 120.77647336720521 31.59371553722823 0.18707539141178 0.0350694283843 10 5 0 0 3 1 3.09999990463257
31 120.77647898732914 31.59371620032541 0.16827139258385 0.03884205967188 10 5 0 0 3 1 3.09999990463257
32 120.77648431957279 31.59371671657979 0.1488403826952 0.04019650444388 10 5 0 0 3 1 3.09999990463257
33 120.77648962883652 31.59371707352841 0.12745939195156 0.04451080784202 10 5 0 0 3 1 3.09999990463257
34 120.77649517418266 31.59371732948136 0.10407038778067 0.04748689383268 10 5 0 0 3 1 3.09999990463257
35 120.77650093521093 31.59371744604823 0.07793539017439 0.05308053269982 10 5 0 0 3 1 3.09999990463257
36 120.77650639169406 31.59371738478079 0.05075338855386 0.05604484304786 10 5 0 0 3 1 3.09999990463257
37 120.77651205163194 31.59371714156848 0.02146138809621 0.05678424611688 10 5 0 0 3 1 3.09999990463257
38 120.77651739453526 31.59371673508748 -0.00860161241144 0.06172668561339 10 5 0 0 3 1 3.09999990463257
39 120.77652290967926 31.59371612090109 -0.04170161113143 0.06490087509155 10 5 0 0 3 1 3.09999990463257
40 120.77652857681569 31.59371530338668 -0.07749561220407 0.06491614878178 10 5 0 0 3 1 3.09999990463257
41 120.77653393060818 31.59371435485448 -0.11238060891628 0.06863448023796 10 5 0 0 3 1 3.09999990463257
42 120.77653943722663 31.59371314588025 -0.15030761063099 0.07598761469126 10 5 0 0 3 1 3.09999990463257
43 120.77654462119038 31.59371181893669 -0.18816661834717 0.07641527801752 10 5 0 0 3 1 3.09999990463257
44 120.7765498937145 31.59371020841696 -0.2296776175499 0.08444775640965 10 5 0 0 3 1 3.09999990463257
45 120.77655480277915 31.59370847813229 -0.27153360843658 0.08610710501671 10 5 0 0 3 1 3.09999990463257
46 120.77655974908151 31.59370647141782 -0.31634160876274 0.08762492984533 10 5 0 0 3 1 3.09999990463257
47 120.77656456070952 31.59370433244736 -0.36092260479927 0.08720582723618 10 5 0 0 3 1 3.09999990463257
48 120.77656941783053 31.59370192412121 -0.40666961669922 0.08748006820679 10 5 0 0 3 1 3.09999990463257
49 120.77657391663102 31.593699426905 -0.45018261671066 0.08778713643551 10 5 0 0 3 1 3.09999990463257
50 120.77657845691779 31.59369670799722 -0.49503561854362 0.08603400737047 10 5 0 0 3 1 3.09999990463257
51 120.77658297525176 31.59369370032385 -0.54150259494781 0.08756124228239 10 5 0 0 3 1 3.09999990463257
52 120.77658728163411 31.59369051157105 -0.58852159976959 0.08939863741398 10 5 0 0 3 1 3.09999990463257
53 120.77659127054733 31.59368732215582 -0.63285958766937 0.08747415244579 10 5 0 0 3 1 3.09999990463257
54 120.7765952281414 31.59368384480934 -0.67852962017059 0.08814579248428 10 5 0 0 3 1 3.09999990463257
55 120.7765989050226 31.59368040853506 -0.72021859884262 0.07871821522713 10 5 0 0 3 1 3.09999990463257
56 120.77660262438354 31.59367676019042 -0.75902360677719 0.06846041232347 10 5 0 0 3 1 3.09999990463257
57 120.77660614825359 31.59367327284019 -0.78832364082336 0.04828798025846 10 5 0 0 3 1 3.09999990463257
58 120.77660983353498 31.59366972297496 -0.80996763706207 0.03537650406361 10 5 0 0 3 1 3.09999990463257
59 120.77661352725873 31.59366623314371 -0.82585161924362 0.02636681124568 10 5 0 0 3 1 3.09999990463257
60 120.77661730953997 31.5936626319427 -0.83837062120438 0.02279406413436 10 5 0 0 3 1 3.09999990463257
61 120.77662083683073 31.59365913128861 -0.85014963150024 0.02625980600715 10 5 0 0 3 1 3.09999990463257
62 120.77662427753455 31.59365565363233 -0.86223262548447 0.02145539969206 10 5 0 0 3 1 3.09999990463257
63 120.77662774512032 31.59365205750279 -0.8737496137619 0.02196606993675 10 5 0 0 3 1 3.09999990463257
64 120.7766312147018 31.5936483440577 -0.88478761911392 0.0193983502686 10 5 0 0 3 1 3.09999990463257
65 120.77663461817052 31.59364467027919 -0.89390760660172 0.01694099232554 10 5 0 0 3 1 3.09999990463257
66 120.77663811751376 31.59364094574071 -0.89918261766434 0.01032455917448 10 5 0 0 3 1 3.09999990463257
67 120.77664140089693 31.59363737851481 -0.90308058261871 0.00411931239069 10 5 0 0 3 1 3.09999990463257
68 120.77664489049766 31.59363360008369 -0.9069716334343 0.00894781015813 10 5 0 0 3 1 3.09999990463257
69 120.77664812806935 31.59362999227893 -0.9112606048584 0.00143450894393 10 5 0 0 3 1 3.09999990463257
70 120.77665137844576 31.59362641072033 -0.91478061676025 8.12403596e-06 10 5 0 0 3 1 3.09999990463257
71 120.77665457437395 31.59362281038936 -0.91612559556961 0.00647568330169 10 5 0 0 3 1 3.09999990463257
72 120.77665525927024 31.59362167289489 -0.91537058353424 -0.05643732473254 10 5 3 0 3 1 3.09999990463257
73 120.77665883564218 31.59361821826954 -0.91237759590149 0.00074127409607 10 5 0 0 3 1 3.09999990463257
74 120.77666223643824 31.59361452505346 -0.91476160287857 0.00299126259051 10 5 0 0 3 1 3.09999990463257
75 120.77666559865295 31.59361082466978 -0.91761261224747 0.01162755675614 10 5 0 0 3 1 3.09999990463257
76 120.77666882259686 31.59360724955218 -0.92017763853073 0.008630043827 10 5 0 0 3 1 3.09999990463257
77 120.77667202711285 31.59360363405161 -0.92272961139679 0.00889021065086 10 5 0 0 3 1 3.09999990463257
78 120.77667527741359 31.59360001490774 -0.92542362213135 0.0037331264466 10 5 0 0 3 1 3.09999990463257
79 120.77667861020574 31.59359626856618 -0.92790460586548 0.00050444196677 10 5 0 0 3 1 3.09999990463257
80 120.77668194848178 31.59359248423237 -0.93086063861847 0.00146039505489 10 5 0 0 3 1 3.09999990463257
81 120.77668533289844 31.59358862826338 -0.93358260393143 0.00033556614653 10 5 0 0 3 1 3.09999990463257
82 120.77668863406063 31.59358487263592 -0.93544262647629 0.00232659839094 10 5 0 0 3 1 3.09999990463257
83 120.77669181160462 31.59358122370076 -0.93758058547974 0.00014574051602 10 5 0 0 3 1 3.09999990463257
84 120.77669517524257 31.59357740598118 -0.93972462415695 0.00322907418013 10 5 0 0 3 1 3.09999990463257
85 120.77669833389325 31.59357376844365 -0.94174462556839 0.00167706457432 10 5 0 0 3 1 3.09999990463257
86 120.77670170091531 31.59356999149468 -0.94383162260056 0.00571602769196 10 5 0 0 3 1 3.09999990463257
87 120.77670512697404 31.59356609972885 -0.94530558586121 -0.00036525406176 10 5 0 0 3 1 3.09999990463257
88 120.77670845544013 31.59356227667281 -0.94651561975479 8.968311886e-05 10 5 0 0 3 1 3.09999990463257
89 120.77671161707394 31.59355863615002 -0.94667363166809 0.00405662506819 10 5 0 0 3 1 3.09999990463257
90 120.77671494225633 31.59355476918717 -0.94657063484192 0.00400433549657 10 5 0 0 3 1 3.09999990463257
91 120.7767180694557 31.59355109768641 -0.94714462757111 -0.00095351686468 10 5 0 0 3 1 3.09999990463257
92 120.77672129640284 31.59354728467826 -0.94756263494492 0.0016762270825 10 5 0 0 3 1 3.09999990463257
93 120.77672452252801 31.59354347791977 -0.94807159900665 0.00115380447824 10 5 0 0 3 1 3.09999990463257
94 120.77672766911088 31.59353959583475 -0.94912660121918 -0.00648067239672 10 5 0 0 3 1 3.09999990463257
95 120.77673072961356 31.59353583479602 -0.94976663589478 0.00191731215455 10 5 0 0 3 1 3.09999990463257
96 120.7767338486479 31.59353220120902 -0.95099258422852 -0.09312865883112 10 5 0 0 0 1 3.09999990463257
97 120.77673849382968 31.59352991538803 -0.86929559707642 -0.22296978533268 10 5 0 0 0 1 3.09999990463257
98 120.77674366581259 31.59352855249025 -0.7592636346817 -0.25164979696274 10 5 0 0 0 1 3.09999990463257
99 120.77674884199159 31.59352763629198 -0.64696562290192 -0.26218035817146 10 5 0 0 0 1 3.09999990463257
100 120.77675411505022 31.59352709699331 -0.5323606133461 -0.22792816162109 10 5 0 0 0 1 3.09999990463257
101 120.77675939628473 31.59352647148314 -0.44483062624931 -0.13413009047508 10 5 0 0 0 1 3.09999990463257
102 120.77676455222822 31.59352531829179 -0.40000259876251 -0.04772990196943 10 5 0 0 0 1 3.09999990463257
103 120.77676947755731 31.59352355100989 -0.39705562591553 0.04473263770342 10 5 0 0 0 1 3.09999990463257
104 120.77677397236626 31.59352107497353 -0.43379360437393 0.10561264306307 10 5 0 0 0 1 3.09999990463257
105 120.77677800888709 31.59351815406002 -0.49106660485268 0.12906308472157 10 5 0 0 0 1 3.09999990463257
106 120.77678186800576 31.59351493070116 -0.55536663532257 0.13885122537613 10 5 0 0 0 1 3.09999990463257
107 120.77678556366521 31.59351165614433 -0.61774861812592 0.12254800647497 10 5 0 0 0 1 3.09999990463257
108 120.77678939354108 31.59350834563637 -0.66737759113312 0.08338604867458 10 5 0 0 0 1 3.09999990463257
109 120.77679323452715 31.59350514524565 -0.70267862081528 0.06626794487238 10 5 0 0 0 1 3.09999990463257
110 120.7767969435935 31.59350191013085 -0.73506659269333 0.05149098113179 10 5 0 0 0 1 3.09999990463257
111 120.77680071692203 31.59349859576348 -0.76001060009003 0.04495747759938 10 5 0 0 0 1 3.09999990463257
112 120.7768044732518 31.59349533392791 -0.7764276266098 0.02868478931487 10 5 0 0 0 1 3.09999990463257
113 120.77680830608102 31.59349203274787 -0.78804659843445 0.02338649146259 10 5 0 0 0 1 3.09999990463257
114 120.7768120530906 31.59348869953798 -0.79951560497284 0.01653468236327 10 5 0 0 0 1 3.09999990463257
115 120.77681570421807 31.59348544831422 -0.80600959062576 0.00723075773567 10 5 0 0 0 1 3.09999990463257
116 120.77681939524815 31.5934821259197 -0.81151759624481 0.00764658814296 10 5 0 0 0 1 3.09999990463257
117 120.77682284032532 31.59347865829443 -0.82645863294601 0.04661286622286 10 5 0 0 0 1 3.09999990463257
118 120.77682586633256 31.59347490644401 -0.85751259326935 0.0562804825604 10 5 0 0 0 1 3.09999990463257
119 120.77682917573703 31.59347135473414 -0.8754506111145 0.01854682341218 10 5 0 0 3 2 3.5
120 120.77683252000865 31.59346780023694 -0.88309562206268 0.01249626278877 10 5 0 0 3 2 3.5
121 120.7768359406198 31.59346417665039 -0.88920563459396 0.00907074101269 10 5 0 0 3 2 3.5
122 120.77683929694474 31.59346066729399 -0.89291059970856 0.00289546092972 10 5 0 0 3 2 3.5
123 120.77684273730682 31.59345710392931 -0.8954616189003 0.00374261289835 10 5 0 0 3 2 3.5
124 120.77684622225065 31.59345346096629 -0.89887362718582 0.00746569875628 10 5 0 0 3 2 3.5
125 120.77684969504271 31.59344976314851 -0.90257161855698 0.00829199980944 10 5 0 0 3 2 3.5
126 120.77685321866146 31.59344596241821 -0.90692061185837 0.00764524657279 10 5 0 0 3 2 3.5
127 120.77685675756982 31.59344210369451 -0.9114556312561 0.00842958223075 10 5 0 0 3 2 3.5
128 120.77686029890567 31.59343824467263 -0.91519260406494 0.0056872786954 10 5 0 0 3 2 3.5
129 120.77686379890511 31.59343440133246 -0.91862863302231 0.00220937398262 10 5 0 0 3 2 3.5
130 120.77686727454146 31.59343061416383 -0.92053061723709 0.00286975083873 10 5 0 0 3 2 3.5
131 120.77687070609241 31.59342690933947 -0.92103761434555 0.00130803429056 10 5 0 0 3 2 3.5
132 120.77687405241757 31.59342328162829 -0.921770632267 0.00096204824513 10 5 0 0 3 2 3.5
133 120.77687770193869 31.59341934782688 -0.92228960990906 0.00132460740861 10 5 0 0 3 2 3.5
134 120.77688125153016 31.5934155006933 -0.92301958799362 0.00127254473045 10 5 0 0 3 2 3.5
135 120.77688488873369 31.59341153783188 -0.92351162433624 -0.00027704084641 10 5 0 0 3 2 3.5
136 120.7768884276594 31.5934077047943 -0.92403763532639 0.00012691227312 10 5 0 0 3 2 3.5
137 120.77689182875464 31.59340400900295 -0.92472159862518 0.00029424994136 10 5 0 0 3 2 3.5
138 120.77689529896163 31.59340021029945 -0.92516160011292 0.00065947027178 10 5 0 0 3 2 3.5
139 120.77689861869904 31.59339658631678 -0.92594158649445 0.00108135747723 10 5 0 0 3 2 3.5
140 120.77690219911274 31.5933926755012 -0.92677861452103 0.0033159290906 10 5 0 0 3 2 3.5
141 120.77690602792599 31.59338846027027 -0.92761063575745 0.00077601225348 10 5 0 0 3 2 3.5
142 120.77690966966186 31.59338446761403 -0.92850160598755 0.0019088339759 10 5 0 0 3 2 3.5
143 120.77691333494734 31.59338044332137 -0.92945659160614 0.0024114868138 10 5 0 0 3 2 3.5
144 120.77691677327954 31.59337663664301 -0.93018060922623 0.00068097905023 10 5 0 0 3 2 3.5
145 120.77692045355823 31.59337257181819 -0.93119162321091 0.00179399410263 10 5 0 0 3 2 3.5
146 120.77692413432584 31.59336850625798 -0.93222963809967 0.00243367208168 10 5 0 0 3 2 3.5
147 120.77692754992411 31.59336470932454 -0.93316358327866 0.00078333873535 10 5 0 0 3 2 3.5
148 120.77693115793994 31.59336068815674 -0.9342285990715 0.00197196286172 10 5 0 0 3 2 3.5
149 120.77693450538212 31.59335694939957 -0.93529158830643 0.0013039431069 10 5 0 0 3 2 3.5
150 120.77693804015423 31.59335298394634 -0.93643361330032 0.00194184936117 10 5 0 0 3 2 3.5
151 120.77694154178671 31.59334905507318 -0.93761658668518 0.00287143350579 10 5 0 0 3 2 3.5
152 120.77694478798746 31.59334539808631 -0.93865162134171 0.00076875992818 10 5 0 0 3 2 3.5
153 120.77694821921938 31.59334152144767 -0.93971663713455 0.0007749031065 10 5 0 0 3 2 3.5
154 120.77695162023831 31.59333768330325 -0.94061958789825 0.00091092154616 10 5 0 0 3 2 3.5
155 120.77695520083047 31.59333363721363 -0.94139659404755 0.00170059874654 10 5 0 0 3 2 3.5
156 120.77695853705642 31.59332985452449 -0.94210958480835 -0.00134972622618 10 5 0 0 3 2 3.5
157 120.7769618394714 31.59332610649198 -0.94275760650635 0.00312522100285 10 5 0 0 3 2 3.5
158 120.77696531659903 31.59332217147989 -0.94338762760162 0.0003140970075 10 5 0 0 3 2 3.5
159 120.7769685623683 31.59331851023898 -0.94364362955093 0.0002183575707 10 5 0 0 3 2 3.5
160 120.7769717761225 31.59331486668966 -0.94382363557816 0.00136289594229 10 5 0 0 3 2 3.5
161 120.7769751604475 31.59331102994534 -0.94371861219406 -0.00049037917051 10 5 0 0 3 2 3.5
162 120.77697870310111 31.59330701726047 -0.94372963905334 -0.00060693611158 10 5 0 0 3 2 3.5
163 120.77698201862265 31.59330328024669 -0.94355261325836 -0.00170173193328 10 5 0 0 3 2 3.5
164 120.77698549263742 31.59329936397013 -0.94350761175156 -0.0002400692465 10 5 0 0 3 2 3.5
165 120.77698911249111 31.59329529388205 -0.94349759817123 -0.00070170947583 10 5 0 0 3 2 3.5
166 120.77699250187915 31.59329147856957 -0.9433445930481 -0.00098044483457 10 5 0 0 3 2 3.5
167 120.7769960510576 31.5932874886484 -0.94329762458801 0.00065276544774 10 5 0 0 3 2 3.5
168 120.77699937775878 31.59328373641186 -0.94296163320541 -0.00170277967118 10 5 0 0 3 2 3.5
169 120.77700267992971 31.59328001707988 -0.94277662038803 -0.00233944645151 10 5 0 0 3 2 3.5
170 120.77700614735416 31.59327611615429 -0.94247859716415 0.00131742481608 10 5 0 0 3 2 3.5
171 120.77700939997455 31.59327244858084 -0.94247061014175 -0.00125347857829 10 5 0 0 3 2 3.5
172 120.77701265427775 31.59326879907134 -0.94243258237839 0.00022487026581 10 5 0 0 3 2 3.5
173 120.77701609590639 31.59326493555916 -0.94208562374115 -0.0006367577007 10 5 0 0 3 2 3.5
174 120.77701935777245 31.59326126574508 -0.94206863641739 -0.000300561107 10 5 0 0 3 2 3.5
175 120.7770227999794 31.59325739449521 -0.94197863340378 0.00045792598394 10 5 0 0 3 2 3.5
176 120.77702606128624 31.59325372891633 -0.94171762466431 0.00050639529945 10 5 0 0 3 2 3.5
177 120.7770293136549 31.59325006999778 -0.94187760353088 0.00017317135644 10 5 0 0 3 2 3.5
178 120.77703274037412 31.5932462290031 -0.94215762615204 0.00328182033263 10 5 0 0 3 2 3.5
179 120.7770359551276 31.59324262197106 -0.94199162721634 -0.00036762835225 10 5 0 0 3 2 3.5
180 120.77703930476675 31.59323885460327 -0.94216161966324 -0.00070387369487 10 5 0 0 3 2 3.5
181 120.7770427899494 31.59323494371347 -0.94214761257172 0.00084471394075 10 5 0 0 3 2 3.5
182 120.77704606100596 31.59323128655252 -0.94182461500168 -0.00216551730409 10 5 0 0 3 2 3.5
183 120.77704945032016 31.59322747447315 -0.94191461801529 -0.00138301076367 10 5 0 0 3 2 3.5
184 120.77705296966901 31.59322354060976 -0.94191563129425 -0.0012696593767 10 5 0 0 3 2 3.5
185 120.77705626449045 31.59321984142716 -0.94168758392334 -0.00246306834742 10 5 0 0 3 2 3.5
186 120.77705951305555 31.59321619806179 -0.94142758846283 -0.0027284885291 10 5 0 0 3 2 3.5
187 120.77706288895152 31.59321243206237 -0.94114458560944 -0.00285202381201 10 5 0 0 3 2 3.5
188 120.77706637060928 31.59320854365573 -0.94079059362411 -0.00033215055009 10 5 0 0 3 2 3.5
189 120.77706965288516 31.59320488607467 -0.9405226111412 -0.00163336074911 10 5 0 0 3 2 3.5
190 120.77707304377026 31.59320111333565 -0.94022661447525 0.00364543520845 10 5 0 0 3 2 3.5
191 120.77707652897156 31.59319723145952 -0.93984562158585 -0.00293801072985 10 5 0 0 3 2 3.5
192 120.77707995022459 31.59319342545571 -0.93966561555862 -0.00058546784567 10 5 0 0 3 2 3.5
193 120.7770831756031 31.59318984899618 -0.93936759233475 -0.00120453070849 10 5 0 0 3 2 3.5
194 120.77708647772155 31.59318617669432 -0.93945860862732 0.00045729317935 10 5 0 0 3 2 3.5
195 120.7770898522692 31.59318244265743 -0.93929558992386 0.00122239755001 10 5 0 0 3 2 3.5
196 120.77709328338284 31.59317864348493 -0.93901664018631 0.00057150231441 10 5 0 0 3 2 3.5
197 120.77709656763062 31.59317503750837 -0.93911963701248 -0.00167595420498 10 5 0 0 3 2 3.5
198 120.7770999763073 31.59317127299659 -0.93848758935928 -0.00147067708895 10 5 0 0 3 2 3.5
199 120.77710335170178 31.59316751379479 -0.93820059299469 -5.19415607e-06 10 5 0 0 3 2 3.5
